Interval=,0.001 s,
ExcelDateTime=,4.54E+04,32:16.2
TimeFormat=,StartOfBlock,
DateFormat=,,
ChannelTitle=,Channel 3,Channel 4
Range=,10.000 mV,10.000 mV
0,0,0
0.001,0,0
0.002,0,0
0.003,0,0
0.004,0,-0.0003125
0.005,0,-0.0003125
0.006,0,-0.0003125
0.007,0,-0.0003125
0.008,0,-0.0003125
0.009,0,-0.0003125
0.01,0,-0.0003125
0.011,0.0003125,-0.0003125
0.012,0.0003125,0
0.013,0.0003125,0
0.014,0.000625,0
0.015,0.000625,0
0.016,0.000625,0
0.017,0.000625,0.0003125
0.018,0.000625,0.0003125
0.019,0.000625,0.000625
0.02,0.000625,0.0009375
0.021,0.0003125,0.0009375
0.022,0.0003125,0.00125
0.023,0.0003125,0.0015625
0.024,0,0.0015625
0.025,0,0.001875
0.026,-0.0003125,0.0021875
0.027,-0.0003125,0.0021875
0.028,-0.0003125,0.0025
0.029,-0.000625,0.0028125
0.03,-0.000625,0.0028125
0.031,-0.0009375,0.003125
0.032,-0.0009375,0.003125
0.033,-0.0009375,0.003125
0.034,-0.00125,0.0034375
0.035,-0.00125,0.0034375
0.036,-0.00125,0.00375
0.037,-0.00125,0.0040625
0.038,-0.0015625,0.004375
0.039,-0.001875,0.004375
0.04,-0.0021875,0.0046875
0.041,-0.0021875,0.005
0.042,-0.0028125,0.005
0.043,-0.0028125,0.0053125
0.044,-0.003125,0.005625
0.045,-0.00375,0.005625
0.046,-0.00375,0.005625
0.047,-0.004375,0.0059375
0.048,-0.004375,0.0059375
0.049,-0.0046875,0.005625
0.05,-0.005,0.005625
0.051,-0.005,0.005625
0.052,-0.0053125,0.0053125
0.053,-0.0053125,0.0053125
0.054,-0.0053125,0.005
0.055,-0.0053125,0.005
0.056,-0.0053125,0.005
0.057,-0.005,0.0046875
0.058,-0.005,0.0046875
0.059,-0.0053125,0.0046875
0.06,-0.0053125,0.0046875
0.061,-0.0053125,0.0046875
0.062,-0.0053125,0.0046875
0.063,-0.0053125,0.0046875
0.064,-0.0053125,0.0046875
0.065,-0.005625,0.0046875
0.066,-0.005625,0.0046875
0.067,-0.005625,0.0046875
0.068,-0.005625,0.0046875
0.069,-0.0053125,0.0046875
0.07,-0.0053125,0.0046875
0.071,-0.0053125,0.0046875
0.072,-0.005,0.004375
0.073,-0.0046875,0.004375
0.074,-0.004375,0.0040625
0.075,-0.0040625,0.0040625
0.076,-0.0034375,0.0040625
0.077,-0.0034375,0.0040625
0.078,-0.0028125,0.0040625
0.079,-0.0028125,0.004375
0.08,-0.0021875,0.004375
0.081,-0.0021875,0.004375
0.082,-0.001875,0.0046875
0.083,-0.001875,0.0046875
0.084,-0.0015625,0.005
0.085,-0.00125,0.005
0.086,-0.00125,0.005
0.087,-0.0009375,0.0053125
0.088,-0.000625,0.0053125
0.089,-0.000625,0.0053125
0.09,-0.0003125,0.0053125
0.091,-0.0003125,0.0053125
0.092,0,0.0053125
0.093,0.000625,0.0053125
0.094,0.000625,0.0053125
0.095,0.0009375,0.0053125
0.096,0.00125,0.0053125
0.097,0.0015625,0.0053125
0.098,0.001875,0.005625
0.099,0.001875,0.005625
0.1,0.0021875,0.005625
0.101,0.0021875,0.0059375
0.102,0.0021875,0.0059375
0.103,0.0025,0.00625
0.104,0.0025,0.0065625
0.105,0.0021875,0.006875
0.106,0.0021875,0.006875
0.107,0.0021875,0.006875
0.108,0.0021875,0.0071875
0.109,0.0025,0.0071875
0.11,0.0025,0.0071875
0.111,0.0025,0.0071875
0.112,0.0025,0.0071875
0.113,0.0028125,0.0071875
0.114,0.0028125,0.0071875
0.115,0.0028125,0.0071875
0.116,0.003125,0.0071875
0.117,0.003125,0.0071875
0.118,0.0034375,0.0071875
0.119,0.0034375,0.0071875
0.12,0.0034375,0.0071875
0.121,0.0034375,0.0071875
0.122,0.0034375,0.0075
0.123,0.0034375,0.0075
0.124,0.0034375,0.0075
0.125,0.0034375,0.0078125
0.126,0.003125,0.0078125
0.127,0.003125,0.0078125
0.128,0.003125,0.0075
0.129,0.003125,0.0075
0.13,0.003125,0.0075
0.131,0.003125,0.0075
0.132,0.003125,0.0071875
0.133,0.003125,0.006875
0.134,0.003125,0.006875
0.135,0.0028125,0.0065625
0.136,0.0028125,0.0065625
0.137,0.0028125,0.00625
0.138,0.0028125,0.00625
0.139,0.0028125,0.00625
0.14,0.0028125,0.00625
0.141,0.0025,0.00625
0.142,0.0021875,0.0059375
0.143,0.001875,0.0059375
0.144,0.001875,0.0059375
0.145,0.00125,0.0059375
0.146,0.00125,0.0059375
0.147,0.000625,0.0059375
0.148,0.0003125,0.0059375
0.149,0.0003125,0.005625
0.15,0,0.005625
0.151,0,0.0053125
0.152,0,0.005
0.153,-0.0003125,0.005
0.154,-0.0003125,0.0046875
0.155,-0.0003125,0.004375
0.156,-0.0003125,0.004375
0.157,-0.0003125,0.004375
0.158,-0.0003125,0.0040625
0.159,-0.0003125,0.0040625
0.16,-0.0003125,0.0040625
0.161,-0.000625,0.0040625
0.162,-0.000625,0.0040625
0.163,-0.000625,0.0040625
0.164,-0.0009375,0.0040625
0.165,-0.0009375,0.0040625
0.166,-0.0009375,0.0040625
0.167,-0.00125,0.0040625
0.168,-0.00125,0.00375
0.169,-0.00125,0.00375
0.17,-0.00125,0.0034375
0.171,-0.0009375,0.0034375
0.172,-0.0009375,0.0034375
0.173,-0.0009375,0.003125
0.174,-0.000625,0.003125
0.175,-0.000625,0.0028125
0.176,-0.000625,0.0028125
0.177,-0.0003125,0.0028125
0.178,-0.0003125,0.0028125
0.179,-0.0003125,0.0028125
0.18,-0.0003125,0.003125
0.181,-0.0003125,0.003125
0.182,-0.0003125,0.003125
0.183,-0.0003125,0.0034375
0.184,-0.000625,0.00375
0.185,-0.000625,0.00375
0.186,-0.0009375,0.0040625
0.187,-0.0009375,0.004375
0.188,-0.0009375,0.004375
0.189,-0.00125,0.0046875
0.19,-0.00125,0.0046875
0.191,-0.00125,0.005
0.192,-0.00125,0.005
0.193,-0.00125,0.0053125
0.194,-0.00125,0.0053125
0.195,-0.00125,0.005625
0.196,-0.00125,0.0059375
0.197,-0.0009375,0.0059375
0.198,-0.0009375,0.00625
0.199,-0.0009375,0.00625
0.2,-0.0009375,0.006875
0.201,-0.00125,0.006875
0.202,-0.00125,0.0075
0.203,-0.00125,0.0075
0.204,-0.00125,0.008125
0.205,-0.00125,0.0084375
0.206,-0.00125,0.0084375
0.207,-0.00125,0.00875
0.208,-0.00125,0.00875
0.209,-0.00125,0.00875
0.21,-0.0009375,0.0090625
0.211,-0.0009375,0.00875
0.212,-0.0009375,0.00875
0.213,-0.000625,0.00875
0.214,-0.0003125,0.00875
0.215,0,0.00875
0.216,0.0003125,0.0084375
0.217,0.000625,0.0084375
0.218,0.0009375,0.0084375
0.219,0.0009375,0.008125
0.22,0.00125,0.008125
0.221,0.0015625,0.008125
0.222,0.001875,0.0078125
0.223,0.001875,0.0078125
0.224,0.0021875,0.0078125
0.225,0.0021875,0.0075
0.226,0.0021875,0.0075
0.227,0.0025,0.0071875
0.228,0.0025,0.006875
0.229,0.0028125,0.006875
0.23,0.003125,0.0065625
0.231,0.003125,0.0059375
0.232,0.0034375,0.0059375
0.233,0.00375,0.0053125
0.234,0.00375,0.0053125
0.235,0.004375,0.0046875
0.236,0.004375,0.0046875
0.237,0.0046875,0.004375
0.238,0.005,0.0040625
0.239,0.005,0.00375
0.24,0.0053125,0.00375
0.241,0.0053125,0.00375
0.242,0.0053125,0.0034375
0.243,0.0053125,0.0034375
0.244,0.0053125,0.0034375
0.245,0.0053125,0.0034375
0.246,0.0053125,0.0034375
0.247,0.0053125,0.003125
0.248,0.0053125,0.003125
0.249,0.0053125,0.003125
0.25,0.0053125,0.0028125
0.251,0.0053125,0.0028125
0.252,0.005625,0.0025
0.253,0.005625,0.0025
0.254,0.0059375,0.0021875
0.255,0.0059375,0.0021875
0.256,0.0059375,0.001875
0.257,0.00625,0.001875
0.258,0.00625,0.001875
0.259,0.00625,0.0015625
0.26,0.0065625,0.001875
0.261,0.0065625,0.001875
0.262,0.0065625,0.001875
0.263,0.0065625,0.001875
0.264,0.00625,0.001875
0.265,0.00625,0.001875
0.266,0.00625,0.001875
0.267,0.00625,0.001875
0.268,0.00625,0.001875
0.269,0.00625,0.001875
0.27,0.00625,0.001875
0.271,0.00625,0.0015625
0.272,0.00625,0.0015625
0.273,0.00625,0.0015625
0.274,0.00625,0.00125
0.275,0.0065625,0.00125
0.276,0.0065625,0.00125
0.277,0.0065625,0.00125
0.278,0.0065625,0.00125
0.279,0.0065625,0.0015625
0.28,0.0065625,0.0015625
0.281,0.00625,0.0015625
0.282,0.00625,0.001875
0.283,0.00625,0.001875
0.284,0.0059375,0.0021875
0.285,0.0059375,0.0025
0.286,0.005625,0.0025
0.287,0.005625,0.0025
0.288,0.005625,0.0028125
0.289,0.0053125,0.0028125
0.29,0.0053125,0.0028125
0.291,0.0053125,0.003125
0.292,0.0053125,0.003125
0.293,0.005625,0.003125
0.294,0.005625,0.003125
0.295,0.005625,0.0034375
0.296,0.0059375,0.0034375
0.297,0.0059375,0.0034375
0.298,0.0059375,0.00375
0.299,0.00625,0.00375
0.3,0.00625,0.0040625
0.301,0.0065625,0.004375
0.302,0.0065625,0.004375
0.303,0.0065625,0.005
0.304,0.006875,0.005
0.305,0.006875,0.0053125
0.306,0.0071875,0.005625
0.307,0.0071875,0.005625
0.308,0.0071875,0.0059375
0.309,0.0075,0.0059375
0.31,0.0078125,0.0059375
0.311,0.0078125,0.0059375
0.312,0.0084375,0.0059375
0.313,0.00875,0.00625
0.314,0.0090625,0.00625
0.315,0.009375,0.00625
0.316,0.0096875,0.00625
0.317,0.01,0.00625
0.318,0.0103125,0.00625
0.319,0.010625,0.00625
0.32,0.0109375,0.0065625
0.321,0.0109375,0.0065625
0.322,0.0109375,0.006875
0.323,0.01125,0.006875
0.324,0.01125,0.006875
0.325,0.01125,0.0071875
0.326,0.01125,0.0071875
0.327,0.0109375,0.0071875
0.328,0.0109375,0.0071875
0.329,0.0109375,0.0071875
0.33,0.0109375,0.0071875
0.331,0.0109375,0.006875
0.332,0.0109375,0.006875
0.333,0.0109375,0.006875
0.334,0.0109375,0.0065625
0.335,0.0109375,0.0065625
0.336,0.0109375,0.0065625
0.337,0.010625,0.0065625
0.338,0.010625,0.00625
0.339,0.010625,0.00625
0.34,0.010625,0.0065625
0.341,0.0103125,0.0065625
0.342,0.01,0.0065625
0.343,0.0096875,0.0065625
0.344,0.0096875,0.0065625
0.345,0.009375,0.0065625
0.346,0.0090625,0.0065625
0.347,0.0090625,0.0065625
0.348,0.00875,0.0065625
0.349,0.0084375,0.0065625
0.35,0.008125,0.00625
0.351,0.008125,0.00625
0.352,0.0078125,0.00625
0.353,0.0078125,0.0059375
0.354,0.0075,0.0059375
0.355,0.0075,0.0059375
0.356,0.0075,0.0059375
0.357,0.0071875,0.0059375
0.358,0.0071875,0.0059375
0.359,0.0071875,0.0059375
0.36,0.006875,0.0059375
0.361,0.006875,0.0059375
0.362,0.0065625,0.0059375
0.363,0.00625,0.00625
0.364,0.00625,0.00625
0.365,0.005625,0.00625
0.366,0.005625,0.00625
0.367,0.0053125,0.0065625
0.368,0.005,0.0065625
0.369,0.005,0.00625
0.37,0.0046875,0.00625
0.371,0.0046875,0.00625
0.372,0.0046875,0.00625
0.373,0.004375,0.00625
0.374,0.004375,0.00625
0.375,0.004375,0.0059375
0.376,0.004375,0.0059375
0.377,0.004375,0.0059375
0.378,0.004375,0.0059375
0.379,0.004375,0.0059375
0.38,0.004375,0.0059375
0.381,0.004375,0.0059375
0.382,0.004375,0.00625
0.383,0.004375,0.00625
0.384,0.0040625,0.00625
0.385,0.0040625,0.00625
0.386,0.0040625,0.00625
0.387,0.0040625,0.00625
0.388,0.0040625,0.0059375
0.389,0.0040625,0.0059375
0.39,0.004375,0.0059375
0.391,0.004375,0.005625
0.392,0.004375,0.005625
0.393,0.0046875,0.0053125
0.394,0.005,0.0053125
0.395,0.0053125,0.005
0.396,0.0053125,0.005
0.397,0.005625,0.0046875
0.398,0.0059375,0.0046875
0.399,0.0059375,0.0046875
0.4,0.00625,0.0046875
0.401,0.0065625,0.004375
0.402,0.0065625,0.004375
0.403,0.006875,0.004375
0.404,0.006875,0.004375
0.405,0.006875,0.004375
0.406,0.0071875,0.004375
0.407,0.0071875,0.004375
0.408,0.0075,0.0040625
0.409,0.0075,0.0040625
0.41,0.0075,0.0040625
0.411,0.0078125,0.00375
0.412,0.008125,0.00375
0.413,0.008125,0.0034375
0.414,0.0084375,0.003125
0.415,0.00875,0.003125
0.416,0.00875,0.003125
0.417,0.009375,0.0028125
0.418,0.009375,0.0028125
0.419,0.0096875,0.0028125
0.42,0.0096875,0.0028125
0.421,0.0096875,0.0025
0.422,0.01,0.0025
0.423,0.01,0.0025
0.424,0.01,0.0025
0.425,0.01,0.0025
0.426,0.01,0.0025
0.427,0.01,0.0025
0.428,0.0103125,0.0025
0.429,0.0103125,0.0025
0.43,0.0103125,0.0025
0.431,0.0103125,0.0021875
0.432,0.0103125,0.0021875
0.433,0.010625,0.0021875
0.434,0.010625,0.001875
0.435,0.010625,0.001875
0.436,0.010625,0.0015625
0.437,0.010625,0.0015625
0.438,0.0109375,0.0015625
0.439,0.0109375,0.0015625
0.44,0.010625,0.0015625
0.441,0.010625,0.001875
0.442,0.010625,0.001875
0.443,0.0103125,0.001875
0.444,0.0103125,0.001875
0.445,0.01,0.001875
0.446,0.0096875,0.001875
0.447,0.0096875,0.0021875
0.448,0.009375,0.0021875
0.449,0.0090625,0.001875
0.45,0.0090625,0.001875
0.451,0.00875,0.001875
0.452,0.00875,0.001875
0.453,0.00875,0.001875
0.454,0.0084375,0.001875
0.455,0.0084375,0.001875
0.456,0.0084375,0.001875
0.457,0.008125,0.0021875
0.458,0.008125,0.0021875
0.459,0.008125,0.0021875
0.46,0.0078125,0.0021875
0.461,0.0078125,0.0025
0.462,0.0075,0.0025
0.463,0.0075,0.0025
0.464,0.0075,0.0028125
0.465,0.0071875,0.0028125
0.466,0.0071875,0.0028125
0.467,0.006875,0.003125
0.468,0.006875,0.003125
0.469,0.006875,0.003125
0.47,0.006875,0.003125
0.471,0.006875,0.003125
0.472,0.006875,0.003125
0.473,0.006875,0.0028125
0.474,0.0071875,0.0028125
0.475,0.0071875,0.0028125
0.476,0.0071875,0.0028125
0.477,0.0075,0.0028125
0.478,0.0075,0.0028125
0.479,0.0078125,0.003125
0.48,0.0078125,0.003125
0.481,0.0078125,0.003125
0.482,0.0078125,0.003125
0.483,0.0078125,0.003125
0.484,0.0078125,0.003125
0.485,0.0078125,0.003125
0.486,0.0078125,0.003125
0.487,0.0075,0.003125
0.488,0.0075,0.003125
0.489,0.0075,0.003125
0.49,0.0075,0.0028125
0.491,0.0078125,0.0028125
0.492,0.0078125,0.0028125
0.493,0.0078125,0.0025
0.494,0.0078125,0.0025
0.495,0.0078125,0.0025
0.496,0.008125,0.0021875
0.497,0.008125,0.0021875
0.498,0.008125,0.0021875
0.499,0.008125,0.0021875
0.5,0.008125,0.0021875
0.501,0.008125,0.0021875
0.502,0.008125,0.0021875
0.503,0.008125,0.0021875
0.504,0.008125,0.0021875
0.505,0.008125,0.0021875
0.506,0.008125,0.0021875
0.507,0.008125,0.0021875
0.508,0.008125,0.0021875
0.509,0.008125,0.0021875
0.51,0.0084375,0.0021875
0.511,0.0084375,0.0021875
0.512,0.00875,0.0021875
0.513,0.0090625,0.001875
0.514,0.0090625,0.001875
0.515,0.009375,0.001875
0.516,0.0096875,0.001875
0.517,0.01,0.001875
0.518,0.01,0.001875
0.519,0.010625,0.001875
0.52,0.010625,0.0021875
0.521,0.0109375,0.0021875
0.522,0.01125,0.0025
0.523,0.01125,0.0025
0.524,0.0115625,0.0025
0.525,0.011875,0.0028125
0.526,0.011875,0.0028125
0.527,0.011875,0.0028125
0.528,0.0121875,0.0028125
0.529,0.0125,0.0028125
0.53,0.0128125,0.0028125
0.531,0.0128125,0.0028125
0.532,0.0134375,0.0028125
0.533,0.01375,0.0028125
0.534,0.01375,0.0028125
0.535,0.014375,0.0028125
0.536,0.014375,0.003125
0.537,0.0146875,0.003125
0.538,0.015,0.003125
0.539,0.015,0.003125
0.54,0.0153125,0.003125
0.541,0.015625,0.0034375
0.542,0.015625,0.0034375
0.543,0.015625,0.00375
0.544,0.0159375,0.00375
0.545,0.0159375,0.00375
0.546,0.0159375,0.0040625
0.547,0.0159375,0.0040625
0.548,0.0159375,0.0040625
0.549,0.01625,0.0040625
0.55,0.01625,0.0040625
0.551,0.01625,0.0040625
0.552,0.01625,0.0040625
0.553,0.01625,0.0040625
0.554,0.0165625,0.0040625
0.555,0.0165625,0.0040625
0.556,0.0165625,0.00375
0.557,0.0165625,0.00375
0.558,0.016875,0.00375
0.559,0.016875,0.00375
0.56,0.016875,0.00375
0.561,0.0165625,0.0034375
0.562,0.0165625,0.0034375
0.563,0.0165625,0.0034375
0.564,0.0165625,0.003125
0.565,0.0165625,0.003125
0.566,0.01625,0.003125
0.567,0.01625,0.0028125
0.568,0.0159375,0.0025
0.569,0.0159375,0.0025
0.57,0.0159375,0.001875
0.571,0.0159375,0.001875
0.572,0.0159375,0.00125
0.573,0.0159375,0.0009375
0.574,0.0159375,0.000625
0.575,0.0159375,0.0003125
0.576,0.0159375,0
0.577,0.0159375,-0.0003125
0.578,0.0159375,-0.000625
0.579,0.0159375,-0.0009375
0.58,0.015625,-0.00125
0.581,0.015625,-0.00125
0.582,0.015625,-0.001875
0.583,0.0153125,-0.001875
0.584,0.0153125,-0.0021875
0.585,0.015,-0.0025
0.586,0.015,-0.0025
0.587,0.015,-0.0028125
0.588,0.0146875,-0.003125
0.589,0.0146875,-0.0034375
0.59,0.014375,-0.0034375
0.591,0.014375,-0.0040625
0.592,0.014375,-0.0040625
0.593,0.0140625,-0.0046875
0.594,0.0140625,-0.005
0.595,0.0140625,-0.005
0.596,0.0140625,-0.005625
0.597,0.0140625,-0.005625
0.598,0.01375,-0.0059375
0.599,0.01375,-0.0059375
0.6,0.01375,-0.00625
0.601,0.0134375,-0.0065625
0.602,0.0134375,-0.0065625
0.603,0.013125,-0.006875
0.604,0.0128125,-0.0071875
0.605,0.0128125,-0.0071875
0.606,0.0125,-0.0075
0.607,0.0125,-0.0078125
0.608,0.0125,-0.0078125
0.609,0.0121875,-0.008125
0.61,0.0121875,-0.0084375
0.611,0.0121875,-0.00875
0.612,0.0121875,-0.0090625
0.613,0.0121875,-0.009375
0.614,0.0121875,-0.01
0.615,0.0125,-0.01
0.616,0.0125,-0.010625
0.617,0.0128125,-0.0109375
0.618,0.0128125,-0.0109375
0.619,0.0128125,-0.01125
0.62,0.013125,-0.0115625
0.621,0.013125,-0.0115625
0.622,0.013125,-0.0121875
0.623,0.0134375,-0.0121875
0.624,0.0134375,-0.0125
0.625,0.0134375,-0.0128125
0.626,0.0134375,-0.0128125
0.627,0.01375,-0.0134375
0.628,0.01375,-0.01375
0.629,0.01375,-0.01375
0.63,0.0140625,-0.014375
0.631,0.0140625,-0.0146875
0.632,0.0140625,-0.015
0.633,0.014375,-0.0153125
0.634,0.014375,-0.0159375
0.635,0.0146875,-0.01625
0.636,0.015,-0.0165625
0.637,0.015,-0.0171875
0.638,0.015,-0.0171875
0.639,0.0153125,-0.0178125
0.64,0.0153125,-0.0178125
0.641,0.0153125,-0.0184375
0.642,0.0153125,-0.01875
0.643,0.015,-0.01875
0.644,0.015,-0.019375
0.645,0.015,-0.019375
0.646,0.0146875,-0.0196875
0.647,0.0146875,-0.02
0.648,0.0146875,-0.020625
0.649,0.014375,-0.020625
0.65,0.014375,-0.02125
0.651,0.014375,-0.0215625
0.652,0.0140625,-0.021875
0.653,0.0140625,-0.0221875
0.654,0.0140625,-0.0228125
0.655,0.01375,-0.0228125
0.656,0.01375,-0.023125
0.657,0.01375,-0.02375
0.658,0.0134375,-0.02375
0.659,0.0134375,-0.0240625
0.66,0.0134375,-0.024375
0.661,0.013125,-0.024375
0.662,0.0128125,-0.0246875
0.663,0.0125,-0.0246875
0.664,0.0125,-0.0246875
0.665,0.011875,-0.025
0.666,0.011875,-0.025
0.667,0.0115625,-0.025
0.668,0.01125,-0.0253125
0.669,0.01125,-0.0253125
0.67,0.0109375,-0.025625
0.671,0.010625,-0.025625
0.672,0.010625,-0.025625
0.673,0.010625,-0.0259375
0.674,0.010625,-0.0259375
0.675,0.0103125,-0.0259375
0.676,0.0103125,-0.02625
0.677,0.0103125,-0.02625
0.678,0.0103125,-0.02625
0.679,0.0103125,-0.02625
0.68,0.01,-0.0259375
0.681,0.01,-0.0259375
0.682,0.01,-0.0259375
0.683,0.0096875,-0.0259375
0.684,0.0096875,-0.0259375
0.685,0.009375,-0.025625
0.686,0.009375,-0.025625
0.687,0.009375,-0.025625
0.688,0.0090625,-0.025625
0.689,0.0090625,-0.025625
0.69,0.0090625,-0.0253125
0.691,0.00875,-0.025625
0.692,0.00875,-0.025625
0.693,0.00875,-0.025625
0.694,0.00875,-0.025625
0.695,0.00875,-0.0253125
0.696,0.00875,-0.0253125
0.697,0.00875,-0.0253125
0.698,0.00875,-0.0253125
0.699,0.00875,-0.0253125
0.7,0.00875,-0.0253125
0.701,0.0084375,-0.025
0.702,0.0084375,-0.025
0.703,0.008125,-0.025
0.704,0.0078125,-0.0246875
0.705,0.0078125,-0.0246875
0.706,0.0075,-0.024375
0.707,0.0075,-0.024375
0.708,0.0071875,-0.024375
0.709,0.006875,-0.024375
0.71,0.006875,-0.024375
0.711,0.0065625,-0.024375
0.712,0.0065625,-0.024375
0.713,0.0065625,-0.024375
0.714,0.00625,-0.024375
0.715,0.00625,-0.024375
0.716,0.00625,-0.024375
0.717,0.0059375,-0.0240625
0.718,0.0059375,-0.0240625
0.719,0.0059375,-0.0240625
0.72,0.0059375,-0.0240625
0.721,0.0059375,-0.0240625
0.722,0.005625,-0.02375
0.723,0.005625,-0.02375
0.724,0.005625,-0.02375
0.725,0.0053125,-0.0234375
0.726,0.0053125,-0.0234375
0.727,0.0053125,-0.0234375
0.728,0.0053125,-0.0234375
0.729,0.0053125,-0.023125
0.73,0.0053125,-0.023125
0.731,0.0053125,-0.023125
0.732,0.0053125,-0.023125
0.733,0.0053125,-0.023125
0.734,0.005625,-0.023125
0.735,0.005625,-0.023125
0.736,0.005625,-0.023125
0.737,0.0059375,-0.023125
0.738,0.0059375,-0.023125
0.739,0.0059375,-0.023125
0.74,0.00625,-0.023125
0.741,0.00625,-0.0228125
0.742,0.00625,-0.0228125
0.743,0.00625,-0.0228125
0.744,0.00625,-0.0225
0.745,0.00625,-0.0225
0.746,0.00625,-0.0225
0.747,0.0065625,-0.0221875
0.748,0.0065625,-0.0221875
0.749,0.0065625,-0.0221875
0.75,0.0065625,-0.0221875
0.751,0.0065625,-0.0221875
0.752,0.006875,-0.0221875
0.753,0.006875,-0.0221875
0.754,0.006875,-0.0221875
0.755,0.0071875,-0.0221875
0.756,0.0071875,-0.0221875
0.757,0.0071875,-0.0221875
0.758,0.0075,-0.0221875
0.759,0.0075,-0.0221875
0.76,0.0078125,-0.0221875
0.761,0.0078125,-0.021875
0.762,0.0078125,-0.021875
0.763,0.0078125,-0.021875
0.764,0.0078125,-0.0215625
0.765,0.008125,-0.0215625
0.766,0.008125,-0.0215625
0.767,0.008125,-0.02125
0.768,0.008125,-0.02125
0.769,0.008125,-0.02125
0.77,0.008125,-0.0209375
0.771,0.008125,-0.0209375
0.772,0.008125,-0.0209375
0.773,0.008125,-0.0209375
0.774,0.0084375,-0.0209375
0.775,0.0084375,-0.020625
0.776,0.0084375,-0.020625
0.777,0.0084375,-0.020625
0.778,0.008125,-0.0203125
0.779,0.008125,-0.0203125
0.78,0.008125,-0.0203125
0.781,0.0078125,-0.02
0.782,0.0078125,-0.0196875
0.783,0.0078125,-0.0196875
0.784,0.0071875,-0.019375
0.785,0.0071875,-0.0190625
0.786,0.006875,-0.0190625
0.787,0.0065625,-0.01875
0.788,0.00625,-0.01875
0.789,0.0059375,-0.0184375
0.79,0.0059375,-0.0184375
0.791,0.0053125,-0.0184375
0.792,0.005,-0.018125
0.793,0.005,-0.018125
0.794,0.004375,-0.018125
0.795,0.0040625,-0.0178125
0.796,0.0040625,-0.0178125
0.797,0.0034375,-0.0178125
0.798,0.0034375,-0.0175
0.799,0.0028125,-0.0175
0.8,0.0025,-0.0171875
0.801,0.0021875,-0.016875
0.802,0.001875,-0.016875
0.803,0.00125,-0.0165625
0.804,0.0009375,-0.0165625
0.805,0.000625,-0.01625
0.806,0,-0.0159375
0.807,-0.0003125,-0.0159375
0.808,-0.000625,-0.015625
0.809,-0.0009375,-0.015625
0.81,-0.0015625,-0.015625
0.811,-0.0015625,-0.0153125
0.812,-0.001875,-0.0153125
0.813,-0.0021875,-0.0153125
0.814,-0.0025,-0.0153125
0.815,-0.0025,-0.015
0.816,-0.0025,-0.015
0.817,-0.0028125,-0.015
0.818,-0.0028125,-0.015
0.819,-0.0028125,-0.015
0.82,-0.003125,-0.0146875
0.821,-0.003125,-0.0146875
0.822,-0.003125,-0.014375
0.823,-0.003125,-0.014375
0.824,-0.0034375,-0.014375
0.825,-0.0034375,-0.014375
0.826,-0.0034375,-0.014375
0.827,-0.0034375,-0.014375
0.828,-0.003125,-0.014375
0.829,-0.003125,-0.014375
0.83,-0.003125,-0.0146875
0.831,-0.003125,-0.0146875
0.832,-0.0028125,-0.0146875
0.833,-0.0025,-0.015
0.834,-0.0025,-0.015
0.835,-0.001875,-0.0153125
0.836,-0.001875,-0.0153125
0.837,-0.0015625,-0.015625
0.838,-0.00125,-0.015625
0.839,-0.00125,-0.015625
0.84,-0.000625,-0.0159375
0.841,-0.000625,-0.0159375
0.842,-0.0003125,-0.0159375
0.843,0,-0.0159375
0.844,0,-0.01625
0.845,0,-0.01625
0.846,0.0003125,-0.01625
0.847,0.000625,-0.0165625
0.848,0.000625,-0.0165625
0.849,0.0009375,-0.0165625
0.85,0.0009375,-0.016875
0.851,0.00125,-0.016875
0.852,0.0015625,-0.0171875
0.853,0.0015625,-0.0175
0.854,0.0015625,-0.0175
0.855,0.001875,-0.0178125
0.856,0.0021875,-0.0178125
0.857,0.0021875,-0.0178125
0.858,0.0021875,-0.018125
0.859,0.0025,-0.018125
0.86,0.0025,-0.018125
0.861,0.0025,-0.018125
0.862,0.0028125,-0.018125
0.863,0.0028125,-0.0184375
0.864,0.0028125,-0.0184375
0.865,0.0028125,-0.0184375
0.866,0.0028125,-0.0184375
0.867,0.0028125,-0.0184375
0.868,0.0028125,-0.0184375
0.869,0.0028125,-0.0184375
0.87,0.0028125,-0.01875
0.871,0.0028125,-0.01875
0.872,0.0028125,-0.01875
0.873,0.0028125,-0.01875
0.874,0.003125,-0.0190625
0.875,0.003125,-0.0190625
0.876,0.003125,-0.0190625
0.877,0.003125,-0.0190625
0.878,0.003125,-0.0190625
0.879,0.0034375,-0.0190625
0.88,0.0034375,-0.0190625
0.881,0.003125,-0.01875
0.882,0.003125,-0.01875
0.883,0.003125,-0.01875
0.884,0.003125,-0.01875
0.885,0.003125,-0.01875
0.886,0.0028125,-0.0184375
0.887,0.0028125,-0.0184375
0.888,0.0028125,-0.0184375
0.889,0.0025,-0.0184375
0.89,0.0025,-0.0184375
0.891,0.0025,-0.0184375
0.892,0.0021875,-0.0184375
0.893,0.0021875,-0.0184375
0.894,0.0021875,-0.0184375
0.895,0.001875,-0.0184375
0.896,0.001875,-0.018125
0.897,0.001875,-0.018125
0.898,0.0015625,-0.018125
0.899,0.00125,-0.018125
0.9,0.00125,-0.0178125
0.901,0.0009375,-0.0178125
0.902,0.000625,-0.0178125
0.903,0.000625,-0.0175
0.904,0,-0.0175
0.905,0,-0.0175
0.906,-0.0003125,-0.0171875
0.907,-0.000625,-0.0171875
0.908,-0.000625,-0.0171875
0.909,-0.0009375,-0.016875
0.91,-0.0009375,-0.016875
0.911,-0.0009375,-0.016875
0.912,-0.00125,-0.016875
0.913,-0.00125,-0.016875
0.914,-0.00125,-0.016875
0.915,-0.00125,-0.016875
0.916,-0.00125,-0.016875
0.917,-0.00125,-0.0165625
0.918,-0.0009375,-0.0165625
0.919,-0.0009375,-0.0165625
0.92,-0.0009375,-0.01625
0.921,-0.0009375,-0.01625
0.922,-0.0009375,-0.0159375
0.923,-0.0009375,-0.0159375
0.924,-0.0009375,-0.0159375
0.925,-0.000625,-0.015625
0.926,-0.000625,-0.015625
0.927,-0.000625,-0.015625
0.928,-0.000625,-0.0153125
0.929,-0.0003125,-0.0153125
0.93,-0.0003125,-0.0153125
0.931,-0.0003125,-0.0153125
0.932,0,-0.0153125
0.933,0,-0.015
0.934,0.0003125,-0.015
0.935,0.000625,-0.015
0.936,0.000625,-0.015
0.937,0.0009375,-0.015
0.938,0.0009375,-0.015
0.939,0.0009375,-0.015
0.94,0.00125,-0.015
0.941,0.00125,-0.015
0.942,0.00125,-0.015
0.943,0.00125,-0.0146875
0.944,0.0009375,-0.0146875
0.945,0.0009375,-0.0146875
0.946,0.0009375,-0.0146875
0.947,0.000625,-0.0146875
0.948,0.000625,-0.0146875
0.949,0.000625,-0.0146875
0.95,0.0003125,-0.015
0.951,0.0003125,-0.015
0.952,0.0003125,-0.015
0.953,0,-0.015
0.954,0,-0.015
0.955,-0.0003125,-0.0153125
0.956,-0.0003125,-0.0153125
0.957,-0.0003125,-0.0153125
0.958,-0.000625,-0.0153125
0.959,-0.000625,-0.0153125
0.96,-0.0009375,-0.0153125
0.961,-0.00125,-0.0153125
0.962,-0.0015625,-0.015
0.963,-0.0015625,-0.015
0.964,-0.001875,-0.015
0.965,-0.0021875,-0.015
0.966,-0.0025,-0.015
0.967,-0.0025,-0.0146875
0.968,-0.0028125,-0.0146875
0.969,-0.003125,-0.0146875
0.97,-0.003125,-0.0146875
0.971,-0.0034375,-0.0146875
0.972,-0.0034375,-0.0146875
0.973,-0.0034375,-0.0146875
0.974,-0.00375,-0.0146875
0.975,-0.00375,-0.0146875
0.976,-0.00375,-0.014375
0.977,-0.00375,-0.014375
0.978,-0.00375,-0.014375
0.979,-0.00375,-0.0140625
0.98,-0.00375,-0.0140625
0.981,-0.00375,-0.01375
0.982,-0.00375,-0.01375
0.983,-0.00375,-0.0134375
0.984,-0.0040625,-0.0134375
0.985,-0.0040625,-0.013125
0.986,-0.00375,-0.013125
0.987,-0.00375,-0.013125
0.988,-0.00375,-0.0128125
0.989,-0.00375,-0.0128125
0.99,-0.00375,-0.0128125
0.991,-0.00375,-0.0128125
0.992,-0.0034375,-0.0128125
0.993,-0.0034375,-0.0128125
0.994,-0.0034375,-0.0128125
0.995,-0.003125,-0.0128125
0.996,-0.003125,-0.0128125
0.997,-0.0028125,-0.0128125
0.998,-0.0028125,-0.0128125
0.999,-0.0025,-0.0128125
1,-0.0025,-0.0128125
1.001,-0.0021875,-0.0125
1.002,-0.0021875,-0.0125
1.003,-0.0021875,-0.0125
1.004,-0.001875,-0.0125
1.005,-0.001875,-0.0125
1.006,-0.0015625,-0.0125
1.007,-0.0015625,-0.0125
1.008,-0.0015625,-0.0125
1.009,-0.00125,-0.0125
1.01,-0.00125,-0.0125
1.011,-0.0009375,-0.0125
1.012,-0.000625,-0.0128125
1.013,-0.000625,-0.0128125
1.014,-0.0003125,-0.0128125
1.015,-0.0003125,-0.0128125
1.016,0,-0.0128125
1.017,0,-0.0128125
1.018,0,-0.0125
1.019,0.0003125,-0.0125
1.02,0.0003125,-0.0125
1.021,0.000625,-0.0125
1.022,0.000625,-0.0125
1.023,0.000625,-0.0121875
1.024,0.000625,-0.0121875
1.025,0.000625,-0.0121875
1.026,0.0009375,-0.011875
1.027,0.0009375,-0.011875
1.028,0.0009375,-0.011875
1.029,0.0009375,-0.0115625
1.03,0.00125,-0.0115625
1.031,0.00125,-0.0115625
1.032,0.00125,-0.0115625
1.033,0.0015625,-0.0115625
1.034,0.0015625,-0.01125
1.035,0.001875,-0.01125
1.036,0.001875,-0.01125
1.037,0.0021875,-0.0109375
1.038,0.0025,-0.0109375
1.039,0.0025,-0.010625
1.04,0.0028125,-0.010625
1.041,0.0028125,-0.0103125
1.042,0.003125,-0.01
1.043,0.003125,-0.01
1.044,0.003125,-0.009375
1.045,0.0034375,-0.009375
1.046,0.0034375,-0.0090625
1.047,0.00375,-0.00875
1.048,0.0040625,-0.00875
1.049,0.004375,-0.008125
1.05,0.004375,-0.008125
1.051,0.0046875,-0.0078125
1.052,0.005,-0.0075
1.053,0.005,-0.0071875
1.054,0.005625,-0.0071875
1.055,0.005625,-0.006875
1.056,0.0059375,-0.0065625
1.057,0.00625,-0.00625
1.058,0.00625,-0.0059375
1.059,0.006875,-0.005625
1.06,0.006875,-0.0053125
1.061,0.0071875,-0.005
1.062,0.0071875,-0.0046875
1.063,0.0071875,-0.004375
1.064,0.0075,-0.0040625
1.065,0.0075,-0.00375
1.066,0.0075,-0.0034375
1.067,0.0075,-0.003125
1.068,0.0075,-0.0028125
1.069,0.0078125,-0.0028125
1.07,0.0078125,-0.0028125
1.071,0.0078125,-0.0025
1.072,0.0078125,-0.0025
1.073,0.0078125,-0.0025
1.074,0.0078125,-0.0021875
1.075,0.0078125,-0.0021875
1.076,0.0078125,-0.0021875
1.077,0.0078125,-0.0021875
1.078,0.0078125,-0.0021875
1.079,0.0078125,-0.0021875
1.08,0.0078125,-0.0025
1.081,0.0075,-0.0025
1.082,0.0075,-0.0025
1.083,0.0075,-0.0025
1.084,0.0071875,-0.0025
1.085,0.0071875,-0.0028125
1.086,0.0071875,-0.0028125
1.087,0.006875,-0.0028125
1.088,0.006875,-0.003125
1.089,0.0065625,-0.003125
1.09,0.00625,-0.00375
1.091,0.00625,-0.00375
1.092,0.00625,-0.0040625
1.093,0.0059375,-0.004375
1.094,0.0059375,-0.004375
1.095,0.0059375,-0.005
1.096,0.005625,-0.005
1.097,0.005625,-0.0053125
1.098,0.0053125,-0.005625
1.099,0.005,-0.005625
1.1,0.005,-0.0059375
1.101,0.005,-0.00625
1.102,0.004375,-0.00625
1.103,0.004375,-0.0065625
1.104,0.0040625,-0.0065625
1.105,0.00375,-0.0065625
1.106,0.00375,-0.006875
1.107,0.0034375,-0.006875
1.108,0.003125,-0.0071875
1.109,0.003125,-0.0075
1.11,0.0028125,-0.0075
1.111,0.0025,-0.0078125
1.112,0.0025,-0.008125
1.113,0.0021875,-0.008125
1.114,0.0021875,-0.0084375
1.115,0.0021875,-0.00875
1.116,0.001875,-0.00875
1.117,0.001875,-0.0090625
1.118,0.001875,-0.0090625
1.119,0.0015625,-0.0090625
1.12,0.0015625,-0.009375
1.121,0.00125,-0.009375
1.122,0.00125,-0.009375
1.123,0.00125,-0.0096875
1.124,0.0009375,-0.0096875
1.125,0.0009375,-0.0096875
1.126,0.0009375,-0.0096875
1.127,0.0009375,-0.01
1.128,0.0009375,-0.01
1.129,0.0009375,-0.01
1.13,0.0009375,-0.0103125
1.131,0.0009375,-0.0103125
1.132,0.0009375,-0.0103125
1.133,0.0009375,-0.010625
1.134,0.0009375,-0.010625
1.135,0.0009375,-0.010625
1.136,0.0009375,-0.010625
1.137,0.00125,-0.010625
1.138,0.00125,-0.010625
1.139,0.00125,-0.010625
1.14,0.00125,-0.010625
1.141,0.00125,-0.010625
1.142,0.00125,-0.010625
1.143,0.00125,-0.010625
1.144,0.00125,-0.0103125
1.145,0.00125,-0.0103125
1.146,0.00125,-0.0103125
1.147,0.00125,-0.01
1.148,0.00125,-0.01
1.149,0.00125,-0.01
1.15,0.00125,-0.01
1.151,0.00125,-0.0096875
1.152,0.00125,-0.0096875
1.153,0.00125,-0.0096875
1.154,0.00125,-0.0096875
1.155,0.00125,-0.0096875
1.156,0.0015625,-0.009375
1.157,0.0015625,-0.009375
1.158,0.0015625,-0.0090625
1.159,0.0015625,-0.0090625
1.16,0.00125,-0.0090625
1.161,0.00125,-0.00875
1.162,0.00125,-0.00875
1.163,0.00125,-0.0084375
1.164,0.00125,-0.008125
1.165,0.00125,-0.0078125
1.166,0.00125,-0.0078125
1.167,0.0015625,-0.0075
1.168,0.0015625,-0.0075
1.169,0.0015625,-0.0071875
1.17,0.0015625,-0.0071875
1.171,0.0015625,-0.006875
1.172,0.001875,-0.006875
1.173,0.001875,-0.006875
1.174,0.001875,-0.0065625
1.175,0.0021875,-0.0065625
1.176,0.0021875,-0.0065625
1.177,0.0025,-0.00625
1.178,0.0028125,-0.00625
1.179,0.0028125,-0.0059375
1.18,0.0028125,-0.0059375
1.181,0.003125,-0.005625
1.182,0.0034375,-0.0053125
1.183,0.0034375,-0.0053125
1.184,0.00375,-0.005
1.185,0.00375,-0.0046875
1.186,0.0040625,-0.0046875
1.187,0.004375,-0.0046875
1.188,0.004375,-0.004375
1.189,0.0046875,-0.004375
1.19,0.0046875,-0.004375
1.191,0.005,-0.0040625
1.192,0.0053125,-0.0040625
1.193,0.005625,-0.0040625
1.194,0.005625,-0.0040625
1.195,0.0059375,-0.00375
1.196,0.0059375,-0.00375
1.197,0.00625,-0.00375
1.198,0.0065625,-0.00375
1.199,0.0065625,-0.00375
1.2,0.006875,-0.0034375
1.201,0.006875,-0.0034375
1.202,0.006875,-0.0034375
1.203,0.0071875,-0.003125
1.204,0.0071875,-0.003125
1.205,0.0071875,-0.0028125
1.206,0.0071875,-0.0028125
1.207,0.0071875,-0.0028125
1.208,0.0071875,-0.0025
1.209,0.0075,-0.0025
1.21,0.0075,-0.0025
1.211,0.0075,-0.0021875
1.212,0.0075,-0.0021875
1.213,0.0075,-0.0021875
1.214,0.0078125,-0.001875
1.215,0.0078125,-0.001875
1.216,0.0078125,-0.001875
1.217,0.0078125,-0.0015625
1.218,0.0078125,-0.0015625
1.219,0.008125,-0.0015625
1.22,0.008125,-0.00125
1.221,0.008125,-0.0009375
1.222,0.008125,-0.000625
1.223,0.008125,-0.000625
1.224,0.008125,-0.0003125
1.225,0.008125,-0.0003125
1.226,0.008125,0
1.227,0.008125,0.0003125
1.228,0.008125,0.000625
1.229,0.008125,0.000625
1.23,0.008125,0.000625
1.231,0.0084375,0.0009375
1.232,0.0084375,0.00125
1.233,0.0084375,0.0015625
1.234,0.0084375,0.0015625
1.235,0.0084375,0.001875
1.236,0.00875,0.0021875
1.237,0.00875,0.0021875
1.238,0.00875,0.0025
1.239,0.00875,0.0028125
1.24,0.0090625,0.0028125
1.241,0.0090625,0.0034375
1.242,0.0090625,0.0034375
1.243,0.0090625,0.00375
1.244,0.00875,0.0040625
1.245,0.00875,0.004375
1.246,0.00875,0.0046875
1.247,0.00875,0.0046875
1.248,0.00875,0.005
1.249,0.00875,0.0053125
1.25,0.00875,0.0053125
1.251,0.00875,0.005625
1.252,0.0090625,0.005625
1.253,0.0090625,0.0059375
1.254,0.0090625,0.0059375
1.255,0.0090625,0.0059375
1.256,0.0090625,0.00625
1.257,0.0090625,0.00625
1.258,0.0090625,0.0065625
1.259,0.0090625,0.0065625
1.26,0.0090625,0.0065625
1.261,0.0090625,0.006875
1.262,0.0090625,0.006875
1.263,0.0090625,0.0071875
1.264,0.0090625,0.0071875
1.265,0.0090625,0.0071875
1.266,0.0090625,0.0075
1.267,0.0090625,0.0075
1.268,0.0090625,0.0075
1.269,0.0090625,0.0075
1.27,0.0090625,0.0075
1.271,0.0090625,0.0075
1.272,0.0090625,0.0075
1.273,0.0090625,0.0075
1.274,0.0090625,0.0075
1.275,0.009375,0.0075
1.276,0.0090625,0.0075
1.277,0.0090625,0.0075
1.278,0.0090625,0.0075
1.279,0.0090625,0.0075
1.28,0.0090625,0.0075
1.281,0.0090625,0.0075
1.282,0.0090625,0.0075
1.283,0.0090625,0.0075
1.284,0.0090625,0.0075
1.285,0.00875,0.0078125
1.286,0.00875,0.0078125
1.287,0.0084375,0.0078125
1.288,0.0084375,0.0078125
1.289,0.0084375,0.0078125
1.29,0.008125,0.0078125
1.291,0.008125,0.0078125
1.292,0.0078125,0.0075
1.293,0.0078125,0.0075
1.294,0.0078125,0.0075
1.295,0.0075,0.0075
1.296,0.0075,0.0075
1.297,0.0071875,0.0075
1.298,0.0071875,0.0075
1.299,0.006875,0.0075
1.3,0.006875,0.0075
1.301,0.0065625,0.0075
1.302,0.00625,0.0075
1.303,0.00625,0.0075
1.304,0.0059375,0.0075
1.305,0.005625,0.0075
1.306,0.005625,0.0075
1.307,0.0053125,0.0075
1.308,0.0053125,0.0075
1.309,0.0053125,0.0071875
1.31,0.005,0.0071875
1.311,0.005,0.0071875
1.312,0.005,0.0071875
1.313,0.005,0.0071875
1.314,0.005,0.006875
1.315,0.005,0.006875
1.316,0.005,0.006875
1.317,0.005,0.006875
1.318,0.005,0.006875
1.319,0.005,0.0065625
1.32,0.0053125,0.0065625
1.321,0.0053125,0.0065625
1.322,0.0053125,0.0065625
1.323,0.005625,0.006875
1.324,0.005625,0.0065625
1.325,0.0059375,0.0065625
1.326,0.0059375,0.0065625
1.327,0.00625,0.0065625
1.328,0.0065625,0.0065625
1.329,0.0065625,0.0065625
1.33,0.006875,0.0065625
1.331,0.0075,0.0065625
1.332,0.0078125,0.00625
1.333,0.008125,0.00625
1.334,0.0084375,0.00625
1.335,0.00875,0.00625
1.336,0.0090625,0.00625
1.337,0.0096875,0.00625
1.338,0.01,0.0059375
1.339,0.0103125,0.0059375
1.34,0.0109375,0.0059375
1.341,0.0109375,0.0059375
1.342,0.0115625,0.0059375
1.343,0.011875,0.0059375
1.344,0.0121875,0.0059375
1.345,0.0125,0.0059375
1.346,0.0128125,0.0059375
1.347,0.013125,0.0059375
1.348,0.0134375,0.0059375
1.349,0.01375,0.0059375
1.35,0.0140625,0.005625
1.351,0.014375,0.005625
1.352,0.014375,0.0053125
1.353,0.015,0.0053125
1.354,0.0153125,0.0053125
1.355,0.0153125,0.005
1.356,0.015625,0.0046875
1.357,0.0159375,0.0046875
1.358,0.0159375,0.004375
1.359,0.0159375,0.004375
1.36,0.01625,0.004375
1.361,0.01625,0.0040625
1.362,0.01625,0.0040625
1.363,0.01625,0.0040625
1.364,0.01625,0.00375
1.365,0.01625,0.00375
1.366,0.01625,0.0034375
1.367,0.0159375,0.003125
1.368,0.0159375,0.003125
1.369,0.0159375,0.003125
1.37,0.015625,0.0025
1.371,0.015625,0.0025
1.372,0.0153125,0.0021875
1.373,0.0153125,0.001875
1.374,0.0153125,0.001875
1.375,0.015,0.0015625
1.376,0.015,0.00125
1.377,0.0146875,0.00125
1.378,0.0146875,0.0009375
1.379,0.014375,0.000625
1.38,0.0140625,0.000625
1.381,0.0140625,0.0003125
1.382,0.01375,0.0003125
1.383,0.01375,0
1.384,0.013125,0
1.385,0.013125,-0.0003125
1.386,0.0128125,-0.0003125
1.387,0.0128125,-0.0003125
1.388,0.0125,-0.000625
1.389,0.0121875,-0.000625
1.39,0.0121875,-0.0009375
1.391,0.011875,-0.00125
1.392,0.011875,-0.00125
1.393,0.011875,-0.0015625
1.394,0.0115625,-0.001875
1.395,0.0115625,-0.001875
1.396,0.0115625,-0.0021875
1.397,0.0115625,-0.0021875
1.398,0.0115625,-0.0021875
1.399,0.0115625,-0.0025
1.4,0.0115625,-0.0025
1.401,0.0115625,-0.0025
1.402,0.0115625,-0.0028125
1.403,0.0115625,-0.0028125
1.404,0.0115625,-0.0028125
1.405,0.0115625,-0.0028125
1.406,0.0115625,-0.003125
1.407,0.011875,-0.003125
1.408,0.011875,-0.003125
1.409,0.011875,-0.0034375
1.41,0.011875,-0.0034375
1.411,0.0121875,-0.00375
1.412,0.0121875,-0.00375
1.413,0.0125,-0.00375
1.414,0.0125,-0.0040625
1.415,0.0125,-0.0040625
1.416,0.0128125,-0.0040625
1.417,0.0128125,-0.004375
1.418,0.013125,-0.004375
1.419,0.013125,-0.004375
1.42,0.0134375,-0.0046875
1.421,0.0134375,-0.0046875
1.422,0.0134375,-0.0046875
1.423,0.01375,-0.0046875
1.424,0.01375,-0.0046875
1.425,0.01375,-0.0046875
1.426,0.01375,-0.0046875
1.427,0.01375,-0.005
1.428,0.01375,-0.005
1.429,0.0140625,-0.005
1.43,0.0140625,-0.005
1.431,0.0140625,-0.005
1.432,0.0140625,-0.0053125
1.433,0.0140625,-0.0053125
1.434,0.014375,-0.0053125
1.435,0.014375,-0.0053125
1.436,0.014375,-0.0053125
1.437,0.014375,-0.0053125
1.438,0.014375,-0.0053125
1.439,0.014375,-0.005
1.44,0.014375,-0.005
1.441,0.014375,-0.005
1.442,0.014375,-0.005
1.443,0.0140625,-0.0046875
1.444,0.0140625,-0.0046875
1.445,0.01375,-0.0046875
1.446,0.01375,-0.004375
1.447,0.01375,-0.0040625
1.448,0.0134375,-0.0040625
1.449,0.0134375,-0.00375
1.45,0.013125,-0.00375
1.451,0.013125,-0.00375
1.452,0.0128125,-0.0034375
1.453,0.0125,-0.0034375
1.454,0.0125,-0.003125
1.455,0.0121875,-0.003125
1.456,0.011875,-0.0028125
1.457,0.011875,-0.0025
1.458,0.011875,-0.0025
1.459,0.0115625,-0.0021875
1.46,0.01125,-0.0021875
1.461,0.0109375,-0.001875
1.462,0.0109375,-0.0015625
1.463,0.010625,-0.00125
1.464,0.010625,-0.00125
1.465,0.0103125,-0.0009375
1.466,0.01,-0.000625
1.467,0.01,-0.000625
1.468,0.0096875,-0.0003125
1.469,0.009375,0
1.47,0.009375,0
1.471,0.009375,0
1.472,0.009375,0.0003125
1.473,0.0090625,0.0003125
1.474,0.0090625,0.0003125
1.475,0.0090625,0.000625
1.476,0.0090625,0.000625
1.477,0.0090625,0.0009375
1.478,0.0090625,0.0009375
1.479,0.009375,0.0009375
1.48,0.009375,0.00125
1.481,0.009375,0.00125
1.482,0.009375,0.0015625
1.483,0.009375,0.0015625
1.484,0.0096875,0.0015625
1.485,0.0096875,0.001875
1.486,0.0096875,0.001875
1.487,0.01,0.0021875
1.488,0.01,0.0021875
1.489,0.0103125,0.0025
1.49,0.0103125,0.0025
1.491,0.010625,0.0025
1.492,0.0109375,0.0028125
1.493,0.0109375,0.0028125
1.494,0.01125,0.0028125
1.495,0.01125,0.003125
1.496,0.0115625,0.003125
1.497,0.011875,0.003125
1.498,0.011875,0.0034375
1.499,0.0125,0.0034375
1.5,0.0125,0.00375
1.501,0.0125,0.00375
1.502,0.0128125,0.00375
1.503,0.013125,0.0040625
1.504,0.013125,0.0040625
1.505,0.0134375,0.004375
1.506,0.01375,0.004375
1.507,0.01375,0.004375
1.508,0.0140625,0.0046875
1.509,0.014375,0.0046875
1.51,0.014375,0.0046875
1.511,0.0146875,0.0046875
1.512,0.015,0.0046875
1.513,0.015,0.004375
1.514,0.0153125,0.004375
1.515,0.015625,0.004375
1.516,0.015625,0.004375
1.517,0.0159375,0.004375
1.518,0.01625,0.004375
1.519,0.01625,0.004375
1.52,0.0165625,0.004375
1.521,0.0165625,0.0040625
1.522,0.016875,0.0040625
1.523,0.016875,0.0040625
1.524,0.0171875,0.0040625
1.525,0.0171875,0.0040625
1.526,0.0171875,0.00375
1.527,0.0175,0.00375
1.528,0.0175,0.00375
1.529,0.0175,0.0034375
1.53,0.0178125,0.0034375
1.531,0.0178125,0.0034375
1.532,0.0178125,0.003125
1.533,0.018125,0.003125
1.534,0.018125,0.0028125
1.535,0.0184375,0.0028125
1.536,0.0184375,0.0028125
1.537,0.0184375,0.0025
1.538,0.0184375,0.0025
1.539,0.0184375,0.0021875
1.54,0.01875,0.0021875
1.541,0.01875,0.0021875
1.542,0.01875,0.001875
1.543,0.01875,0.001875
1.544,0.01875,0.001875
1.545,0.01875,0.0015625
1.546,0.0184375,0.0015625
1.547,0.0184375,0.0015625
1.548,0.0184375,0.00125
1.549,0.0184375,0.00125
1.55,0.0184375,0.0009375
1.551,0.0184375,0.0009375
1.552,0.0184375,0.000625
1.553,0.018125,0.0003125
1.554,0.018125,0
1.555,0.018125,0
1.556,0.018125,-0.0003125
1.557,0.0178125,-0.000625
1.558,0.0178125,-0.000625
1.559,0.0178125,-0.0009375
1.56,0.0175,-0.0009375
1.561,0.0175,-0.00125
1.562,0.0171875,-0.0015625
1.563,0.016875,-0.001875
1.564,0.016875,-0.001875
1.565,0.0165625,-0.0021875
1.566,0.01625,-0.0025
1.567,0.01625,-0.0025
1.568,0.0159375,-0.003125
1.569,0.015625,-0.003125
1.57,0.015625,-0.0034375
1.571,0.015,-0.00375
1.572,0.015,-0.0040625
1.573,0.0146875,-0.004375
1.574,0.014375,-0.0046875
1.575,0.014375,-0.005
1.576,0.0140625,-0.0053125
1.577,0.01375,-0.005625
1.578,0.01375,-0.005625
1.579,0.013125,-0.00625
1.58,0.013125,-0.00625
1.581,0.0128125,-0.0065625
1.582,0.0125,-0.0065625
1.583,0.0121875,-0.006875
1.584,0.0121875,-0.0071875
1.585,0.0115625,-0.0071875
1.586,0.0115625,-0.0075
1.587,0.01125,-0.0075
1.588,0.0109375,-0.0078125
1.589,0.0109375,-0.008125
1.59,0.010625,-0.008125
1.591,0.0103125,-0.008125
1.592,0.01,-0.0084375
1.593,0.0096875,-0.0084375
1.594,0.0096875,-0.00875
1.595,0.0096875,-0.00875
1.596,0.009375,-0.00875
1.597,0.0090625,-0.0090625
1.598,0.00875,-0.0090625
1.599,0.00875,-0.0090625
1.6,0.0084375,-0.0090625
1.601,0.008125,-0.0090625
1.602,0.008125,-0.0090625
1.603,0.0078125,-0.0090625
1.604,0.0078125,-0.009375
1.605,0.0075,-0.009375
1.606,0.0071875,-0.009375
1.607,0.006875,-0.009375
1.608,0.006875,-0.009375
1.609,0.0065625,-0.009375
1.61,0.00625,-0.009375
1.611,0.00625,-0.009375
1.612,0.0059375,-0.009375
1.613,0.0059375,-0.009375
1.614,0.005625,-0.009375
1.615,0.005625,-0.009375
1.616,0.005625,-0.0096875
1.617,0.0053125,-0.0096875
1.618,0.0053125,-0.0096875
1.619,0.005,-0.0096875
1.62,0.005,-0.0096875
1.621,0.005,-0.0096875
1.622,0.0046875,-0.0096875
1.623,0.0046875,-0.0096875
1.624,0.004375,-0.01
1.625,0.0040625,-0.01
1.626,0.0040625,-0.01
1.627,0.00375,-0.01
1.628,0.00375,-0.01
1.629,0.00375,-0.01
1.63,0.0034375,-0.01
1.631,0.0034375,-0.0103125
1.632,0.003125,-0.0103125
1.633,0.003125,-0.0103125
1.634,0.003125,-0.010625
1.635,0.0028125,-0.010625
1.636,0.0028125,-0.010625
1.637,0.0025,-0.010625
1.638,0.0025,-0.010625
1.639,0.0025,-0.0109375
1.64,0.0021875,-0.0109375
1.641,0.0021875,-0.0109375
1.642,0.0021875,-0.0109375
1.643,0.001875,-0.0109375
1.644,0.001875,-0.0109375
1.645,0.0015625,-0.0109375
1.646,0.0015625,-0.0109375
1.647,0.00125,-0.0109375
1.648,0.0009375,-0.01125
1.649,0.0009375,-0.01125
1.65,0.000625,-0.01125
1.651,0.000625,-0.01125
1.652,0.0003125,-0.01125
1.653,0.0003125,-0.0115625
1.654,0.0003125,-0.0115625
1.655,0,-0.0115625
1.656,0,-0.0115625
1.657,-0.0003125,-0.0115625
1.658,-0.0003125,-0.011875
1.659,-0.0003125,-0.011875
1.66,-0.000625,-0.011875
1.661,-0.000625,-0.011875
1.662,-0.000625,-0.011875
1.663,-0.0009375,-0.011875
1.664,-0.0009375,-0.011875
1.665,-0.0009375,-0.011875
1.666,-0.00125,-0.011875
1.667,-0.00125,-0.011875
1.668,-0.00125,-0.011875
1.669,-0.00125,-0.011875
1.67,-0.00125,-0.011875
1.671,-0.00125,-0.011875
1.672,-0.00125,-0.0121875
1.673,-0.00125,-0.0121875
1.674,-0.00125,-0.0121875
1.675,-0.00125,-0.0121875
1.676,-0.00125,-0.0121875
1.677,-0.0009375,-0.0121875
1.678,-0.0009375,-0.0121875
1.679,-0.0009375,-0.0121875
1.68,-0.000625,-0.0121875
1.681,-0.000625,-0.0121875
1.682,-0.0003125,-0.011875
1.683,-0.0003125,-0.011875
1.684,-0.0003125,-0.011875
1.685,0,-0.011875
1.686,0,-0.011875
1.687,0.0003125,-0.0115625
1.688,0.0003125,-0.0115625
1.689,0.000625,-0.0115625
1.69,0.000625,-0.0115625
1.691,0.000625,-0.0115625
1.692,0.0009375,-0.0115625
1.693,0.0009375,-0.0115625
1.694,0.00125,-0.0115625
1.695,0.00125,-0.0115625
1.696,0.0015625,-0.0115625
1.697,0.0015625,-0.0115625
1.698,0.001875,-0.0115625
1.699,0.001875,-0.01125
1.7,0.001875,-0.01125
1.701,0.0021875,-0.01125
1.702,0.0021875,-0.01125
1.703,0.0021875,-0.01125
1.704,0.0021875,-0.0109375
1.705,0.0021875,-0.0109375
1.706,0.0021875,-0.0109375
1.707,0.0021875,-0.0109375
1.708,0.0021875,-0.010625
1.709,0.0021875,-0.010625
1.71,0.0021875,-0.010625
1.711,0.0021875,-0.010625
1.712,0.0021875,-0.010625
1.713,0.0021875,-0.0103125
1.714,0.0021875,-0.0103125
1.715,0.001875,-0.0103125
1.716,0.001875,-0.0103125
1.717,0.001875,-0.0103125
1.718,0.001875,-0.0103125
1.719,0.001875,-0.0103125
1.72,0.0015625,-0.0103125
1.721,0.0015625,-0.0103125
1.722,0.0015625,-0.01
1.723,0.0015625,-0.01
1.724,0.00125,-0.01
1.725,0.00125,-0.01
1.726,0.00125,-0.01
1.727,0.00125,-0.01
1.728,0.00125,-0.01
1.729,0.0009375,-0.0096875
1.73,0.0009375,-0.0096875
1.731,0.0009375,-0.01
1.732,0.0009375,-0.01
1.733,0.0009375,-0.01
1.734,0.0009375,-0.01
1.735,0.0009375,-0.01
1.736,0.0009375,-0.01
1.737,0.00125,-0.01
1.738,0.00125,-0.0096875
1.739,0.00125,-0.0096875
1.74,0.00125,-0.0096875
1.741,0.00125,-0.0096875
1.742,0.00125,-0.0096875
1.743,0.00125,-0.0096875
1.744,0.00125,-0.0096875
1.745,0.00125,-0.0096875
1.746,0.00125,-0.0096875
1.747,0.00125,-0.0096875
1.748,0.00125,-0.0096875
1.749,0.00125,-0.0096875
1.75,0.0015625,-0.0096875
1.751,0.0015625,-0.0096875
1.752,0.0015625,-0.0096875
1.753,0.0015625,-0.0096875
1.754,0.001875,-0.0096875
1.755,0.001875,-0.009375
1.756,0.001875,-0.009375
1.757,0.0021875,-0.009375
1.758,0.0021875,-0.009375
1.759,0.0021875,-0.009375
1.76,0.0021875,-0.009375
1.761,0.0025,-0.009375
1.762,0.0025,-0.009375
1.763,0.0025,-0.009375
1.764,0.0025,-0.0090625
1.765,0.0025,-0.0090625
1.766,0.0028125,-0.0090625
1.767,0.0028125,-0.0090625
1.768,0.0028125,-0.0090625
1.769,0.0028125,-0.0090625
1.77,0.0028125,-0.0090625
1.771,0.003125,-0.0090625
1.772,0.003125,-0.0090625
1.773,0.003125,-0.0090625
1.774,0.003125,-0.0090625
1.775,0.003125,-0.0090625
1.776,0.003125,-0.0090625
1.777,0.003125,-0.0090625
1.778,0.003125,-0.0090625
1.779,0.003125,-0.0090625
1.78,0.003125,-0.0090625
1.781,0.003125,-0.0090625
1.782,0.003125,-0.0090625
1.783,0.003125,-0.0090625
1.784,0.0028125,-0.0090625
1.785,0.0028125,-0.0090625
1.786,0.0028125,-0.0090625
1.787,0.0025,-0.0090625
1.788,0.0025,-0.0090625
1.789,0.0025,-0.0090625
1.79,0.0021875,-0.009375
1.791,0.0021875,-0.009375
1.792,0.001875,-0.009375
1.793,0.001875,-0.009375
1.794,0.001875,-0.0096875
1.795,0.0015625,-0.0096875
1.796,0.0015625,-0.0096875
1.797,0.0015625,-0.01
1.798,0.00125,-0.01
1.799,0.00125,-0.01
1.8,0.0009375,-0.01
1.801,0.000625,-0.01
1.802,0.000625,-0.01
1.803,0.0003125,-0.01
1.804,0.0003125,-0.01
1.805,0,-0.0103125
1.806,0,-0.0103125
1.807,0,-0.0103125
1.808,-0.0003125,-0.0103125
1.809,-0.0003125,-0.0103125
1.81,-0.0003125,-0.0103125
1.811,-0.000625,-0.0103125
1.812,-0.000625,-0.0103125
1.813,-0.000625,-0.0103125
1.814,-0.000625,-0.0103125
1.815,-0.000625,-0.0103125
1.816,-0.000625,-0.0103125
1.817,-0.000625,-0.010625
1.818,-0.0009375,-0.010625
1.819,-0.0009375,-0.010625
1.82,-0.0009375,-0.010625
1.821,-0.0009375,-0.0103125
1.822,-0.0009375,-0.0103125
1.823,-0.00125,-0.0103125
1.824,-0.00125,-0.0103125
1.825,-0.00125,-0.010625
1.826,-0.00125,-0.010625
1.827,-0.00125,-0.010625
1.828,-0.0015625,-0.010625
1.829,-0.0015625,-0.010625
1.83,-0.0015625,-0.010625
1.831,-0.0015625,-0.010625
1.832,-0.0015625,-0.010625
1.833,-0.001875,-0.010625
1.834,-0.001875,-0.0109375
1.835,-0.001875,-0.0109375
1.836,-0.001875,-0.0109375
1.837,-0.001875,-0.01125
1.838,-0.001875,-0.01125
1.839,-0.001875,-0.01125
1.84,-0.001875,-0.01125
1.841,-0.0021875,-0.01125
1.842,-0.0021875,-0.0115625
1.843,-0.0021875,-0.0115625
1.844,-0.0021875,-0.0115625
1.845,-0.0021875,-0.0115625
1.846,-0.0021875,-0.0115625
1.847,-0.0021875,-0.011875
1.848,-0.0021875,-0.011875
1.849,-0.0021875,-0.011875
1.85,-0.0021875,-0.011875
1.851,-0.0021875,-0.011875
1.852,-0.0021875,-0.0121875
1.853,-0.001875,-0.0121875
1.854,-0.001875,-0.0121875
1.855,-0.001875,-0.0121875
1.856,-0.0015625,-0.0121875
1.857,-0.0015625,-0.0125
1.858,-0.0015625,-0.0125
1.859,-0.00125,-0.0125
1.86,-0.00125,-0.0125
1.861,-0.00125,-0.0125
1.862,-0.0009375,-0.0121875
1.863,-0.0009375,-0.0121875
1.864,-0.0009375,-0.0121875
1.865,-0.000625,-0.0121875
1.866,-0.000625,-0.0121875
1.867,-0.000625,-0.0121875
1.868,-0.000625,-0.0121875
1.869,-0.000625,-0.0121875
1.87,-0.0003125,-0.0121875
1.871,-0.0003125,-0.0121875
1.872,-0.0003125,-0.0121875
1.873,-0.0003125,-0.0121875
1.874,-0.0003125,-0.011875
1.875,0,-0.011875
1.876,0,-0.011875
1.877,0,-0.011875
1.878,0,-0.011875
1.879,0,-0.011875
1.88,0,-0.0115625
1.881,0,-0.0115625
1.882,0,-0.0115625
1.883,0,-0.01125
1.884,0,-0.01125
1.885,0,-0.01125
1.886,0,-0.0109375
1.887,-0.0003125,-0.0109375
1.888,-0.0003125,-0.010625
1.889,-0.0003125,-0.010625
1.89,-0.0003125,-0.010625
1.891,-0.0003125,-0.0103125
1.892,-0.000625,-0.0103125
1.893,-0.000625,-0.01
1.894,-0.000625,-0.01
1.895,-0.000625,-0.01
1.896,-0.0009375,-0.0096875
1.897,-0.0009375,-0.0096875
1.898,-0.00125,-0.009375
1.899,-0.00125,-0.0090625
1.9,-0.00125,-0.0090625
1.901,-0.0015625,-0.00875
1.902,-0.0015625,-0.00875
1.903,-0.001875,-0.008125
1.904,-0.001875,-0.008125
1.905,-0.001875,-0.0078125
1.906,-0.0021875,-0.0075
1.907,-0.0021875,-0.0071875
1.908,-0.0025,-0.006875
1.909,-0.0025,-0.006875
1.91,-0.0025,-0.0065625
1.911,-0.0028125,-0.0059375
1.912,-0.0028125,-0.0059375
1.913,-0.003125,-0.005625
1.914,-0.003125,-0.0053125
1.915,-0.003125,-0.005
1.916,-0.003125,-0.0046875
1.917,-0.003125,-0.004375
1.918,-0.003125,-0.004375
1.919,-0.003125,-0.00375
1.92,-0.003125,-0.00375
1.921,-0.003125,-0.003125
1.922,-0.003125,-0.003125
1.923,-0.003125,-0.0028125
1.924,-0.003125,-0.0025
1.925,-0.003125,-0.0025
1.926,-0.003125,-0.0021875
1.927,-0.003125,-0.001875
1.928,-0.003125,-0.0015625
1.929,-0.0028125,-0.0015625
1.93,-0.0028125,-0.00125
1.931,-0.0028125,-0.00125
1.932,-0.0025,-0.00125
1.933,-0.0021875,-0.0009375
1.934,-0.0021875,-0.0009375
1.935,-0.001875,-0.0009375
1.936,-0.0015625,-0.0009375
1.937,-0.0015625,-0.000625
1.938,-0.00125,-0.000625
1.939,-0.0009375,-0.000625
1.94,-0.000625,-0.000625
1.941,-0.000625,-0.000625
1.942,-0.0003125,-0.000625
1.943,0,-0.0009375
1.944,0,-0.0009375
1.945,0.000625,-0.0009375
1.946,0.000625,-0.0009375
1.947,0.0009375,-0.0009375
1.948,0.00125,-0.0009375
1.949,0.00125,-0.0009375
1.95,0.001875,-0.00125
1.951,0.001875,-0.00125
1.952,0.0021875,-0.00125
1.953,0.0025,-0.0015625
1.954,0.0025,-0.0015625
1.955,0.0028125,-0.0015625
1.956,0.003125,-0.001875
1.957,0.003125,-0.001875
1.958,0.0034375,-0.001875
1.959,0.0034375,-0.0021875
1.96,0.0034375,-0.0021875
1.961,0.00375,-0.0021875
1.962,0.00375,-0.0021875
1.963,0.00375,-0.0021875
1.964,0.00375,-0.0025
1.965,0.00375,-0.0025
1.966,0.00375,-0.0025
1.967,0.00375,-0.0025
1.968,0.00375,-0.0025
1.969,0.00375,-0.0028125
1.97,0.00375,-0.0028125
1.971,0.0034375,-0.0028125
1.972,0.0034375,-0.0028125
1.973,0.0034375,-0.003125
1.974,0.003125,-0.003125
1.975,0.003125,-0.003125
1.976,0.003125,-0.0034375
1.977,0.0028125,-0.0034375
1.978,0.0028125,-0.0034375
1.979,0.0025,-0.00375
1.98,0.0025,-0.00375
1.981,0.0021875,-0.00375
1.982,0.001875,-0.00375
1.983,0.001875,-0.0040625
1.984,0.0015625,-0.0040625
1.985,0.00125,-0.0040625
1.986,0.0009375,-0.0040625
1.987,0.0009375,-0.004375
1.988,0.0009375,-0.004375
1.989,0.000625,-0.004375
1.99,0.0003125,-0.0046875
1.991,0.0003125,-0.0046875
1.992,0,-0.0046875
1.993,0,-0.0046875
1.994,0,-0.005
1.995,-0.0003125,-0.005
1.996,-0.0003125,-0.005
1.997,-0.000625,-0.0053125
1.998,-0.000625,-0.0053125
1.999,-0.000625,-0.0053125
2,-0.0009375,-0.0053125
2.001,-0.0009375,-0.0053125
2.002,-0.0009375,-0.0053125
2.003,-0.0009375,-0.005625
2.004,-0.00125,-0.005625
2.005,-0.00125,-0.005625
2.006,-0.00125,-0.005625
2.007,-0.00125,-0.005625
2.008,-0.00125,-0.005625
2.009,-0.00125,-0.005625
2.01,-0.00125,-0.005625
2.011,-0.0015625,-0.005625
2.012,-0.0015625,-0.005625
2.013,-0.0015625,-0.005625
2.014,-0.0015625,-0.005625
2.015,-0.0015625,-0.0053125
2.016,-0.0015625,-0.0053125
2.017,-0.0015625,-0.0053125
2.018,-0.0015625,-0.0053125
2.019,-0.0015625,-0.0053125
2.02,-0.0015625,-0.0053125
2.021,-0.0015625,-0.0053125
2.022,-0.0015625,-0.0053125
2.023,-0.0015625,-0.0053125
2.024,-0.0015625,-0.0053125
2.025,-0.0015625,-0.0053125
2.026,-0.0015625,-0.005
2.027,-0.0015625,-0.005
2.028,-0.0015625,-0.005
2.029,-0.0015625,-0.005
2.03,-0.0015625,-0.0046875
2.031,-0.00125,-0.0046875
2.032,-0.00125,-0.0046875
2.033,-0.00125,-0.004375
2.034,-0.00125,-0.004375
2.035,-0.00125,-0.004375
2.036,-0.00125,-0.0040625
2.037,-0.00125,-0.0040625
2.038,-0.0009375,-0.00375
2.039,-0.0009375,-0.00375
2.04,-0.0009375,-0.00375
2.041,-0.000625,-0.0034375
2.042,-0.000625,-0.003125
2.043,-0.000625,-0.003125
2.044,-0.0003125,-0.003125
2.045,-0.0003125,-0.0028125
2.046,0,-0.0025
2.047,0.0003125,-0.0025
2.048,0.0003125,-0.0021875
2.049,0.000625,-0.001875
2.05,0.000625,-0.001875
2.051,0.0009375,-0.001875
2.052,0.0015625,-0.0015625
2.053,0.0015625,-0.00125
2.054,0.001875,-0.0009375
2.055,0.0021875,-0.0009375
2.056,0.0025,-0.000625
2.057,0.0025,-0.0003125
2.058,0.0028125,-0.0003125
2.059,0.0034375,0
2.06,0.0034375,0.0003125
2.061,0.00375,0.0003125
2.062,0.0040625,0.000625
2.063,0.0040625,0.0009375
2.064,0.004375,0.0009375
2.065,0.0046875,0.00125
2.066,0.005,0.0015625
2.067,0.005,0.001875
2.068,0.0053125,0.001875
2.069,0.005625,0.0021875
2.07,0.005625,0.0025
2.071,0.0059375,0.0025
2.072,0.00625,0.0028125
2.073,0.00625,0.003125
2.074,0.0065625,0.003125
2.075,0.0065625,0.003125
2.076,0.006875,0.0034375
2.077,0.006875,0.0034375
2.078,0.006875,0.00375
2.079,0.0071875,0.00375
2.08,0.0071875,0.0040625
2.081,0.0071875,0.0040625
2.082,0.0075,0.0040625
2.083,0.0075,0.004375
2.084,0.0075,0.004375
2.085,0.0078125,0.004375
2.086,0.0078125,0.004375
2.087,0.0078125,0.0046875
2.088,0.008125,0.0046875
2.089,0.008125,0.0046875
2.09,0.008125,0.0046875
2.091,0.008125,0.0046875
2.092,0.0084375,0.0046875
2.093,0.0084375,0.0046875
2.094,0.0084375,0.0046875
2.095,0.00875,0.0046875
2.096,0.00875,0.004375
2.097,0.00875,0.004375
2.098,0.00875,0.004375
2.099,0.0090625,0.004375
2.1,0.0090625,0.004375
2.101,0.0090625,0.004375
2.102,0.0090625,0.0046875
2.103,0.0090625,0.0046875
2.104,0.0090625,0.0046875
2.105,0.0090625,0.0046875
2.106,0.009375,0.0046875
2.107,0.009375,0.0046875
2.108,0.009375,0.0046875
2.109,0.0090625,0.0046875
2.11,0.0090625,0.0046875
2.111,0.0090625,0.0046875
2.112,0.0090625,0.0046875
2.113,0.0090625,0.0046875
2.114,0.0090625,0.0046875
2.115,0.0090625,0.0046875
2.116,0.0090625,0.0046875
2.117,0.0090625,0.0046875
2.118,0.0090625,0.0046875
2.119,0.0090625,0.0046875
2.12,0.0090625,0.0046875
2.121,0.0090625,0.0046875
2.122,0.0090625,0.0046875
2.123,0.0090625,0.0046875
2.124,0.0090625,0.0046875
2.125,0.0090625,0.005
2.126,0.0090625,0.005
2.127,0.0090625,0.005
2.128,0.0090625,0.005
2.129,0.0090625,0.005
2.13,0.0090625,0.005
2.131,0.0090625,0.005
2.132,0.0090625,0.005
2.133,0.0090625,0.005
2.134,0.009375,0.005
2.135,0.009375,0.005
2.136,0.009375,0.005
2.137,0.009375,0.005
2.138,0.009375,0.005
2.139,0.0096875,0.005
2.14,0.0096875,0.005
2.141,0.0096875,0.005
2.142,0.0096875,0.005
2.143,0.01,0.005
2.144,0.01,0.0053125
2.145,0.01,0.0053125
2.146,0.0103125,0.0053125
2.147,0.0103125,0.0053125
2.148,0.0103125,0.0053125
2.149,0.010625,0.005625
2.15,0.010625,0.005625
2.151,0.010625,0.005625
2.152,0.0109375,0.005625
2.153,0.0109375,0.0059375
2.154,0.01125,0.0059375
2.155,0.01125,0.0059375
2.156,0.01125,0.00625
2.157,0.0115625,0.00625
2.158,0.0115625,0.00625
2.159,0.011875,0.0065625
2.16,0.011875,0.0065625
2.161,0.0121875,0.0065625
2.162,0.0121875,0.006875
2.163,0.0125,0.006875
2.164,0.0125,0.0071875
2.165,0.0128125,0.0071875
2.166,0.013125,0.0071875
2.167,0.013125,0.0075
2.168,0.0134375,0.0075
2.169,0.01375,0.0075
2.17,0.01375,0.0078125
2.171,0.0140625,0.0078125
2.172,0.0140625,0.008125
2.173,0.014375,0.008125
2.174,0.0146875,0.008125
2.175,0.015,0.0084375
2.176,0.015,0.0084375
2.177,0.0153125,0.00875
2.178,0.0153125,0.00875
2.179,0.015625,0.00875
2.18,0.0159375,0.0090625
2.181,0.0159375,0.0090625
2.182,0.01625,0.009375
2.183,0.01625,0.009375
2.184,0.01625,0.009375
2.185,0.0165625,0.0096875
2.186,0.0165625,0.0096875
2.187,0.016875,0.01
2.188,0.016875,0.01
2.189,0.016875,0.01
2.19,0.016875,0.0103125
2.191,0.016875,0.0103125
2.192,0.016875,0.0103125
2.193,0.016875,0.0103125
2.194,0.016875,0.0103125
2.195,0.016875,0.0103125
2.196,0.016875,0.0103125
2.197,0.0165625,0.0103125
2.198,0.0165625,0.010625
2.199,0.0165625,0.010625
2.2,0.0165625,0.010625
2.201,0.0165625,0.010625
2.202,0.01625,0.010625
2.203,0.01625,0.010625
2.204,0.0159375,0.0103125
2.205,0.0159375,0.0103125
2.206,0.0159375,0.0103125
2.207,0.015625,0.0103125
2.208,0.015625,0.0103125
2.209,0.015625,0.0103125
2.21,0.0153125,0.0103125
2.211,0.0153125,0.0103125
2.212,0.015,0.0103125
2.213,0.015,0.0103125
2.214,0.0146875,0.0103125
2.215,0.0146875,0.0103125
2.216,0.0146875,0.0103125
2.217,0.014375,0.0103125
2.218,0.014375,0.010625
2.219,0.014375,0.010625
2.22,0.0140625,0.010625
2.221,0.0140625,0.010625
2.222,0.0140625,0.010625
2.223,0.0140625,0.010625
2.224,0.01375,0.0109375
2.225,0.01375,0.0109375
2.226,0.01375,0.0109375
2.227,0.01375,0.01125
2.228,0.01375,0.01125
2.229,0.01375,0.01125
2.23,0.0134375,0.0115625
2.231,0.0134375,0.0115625
2.232,0.0134375,0.0115625
2.233,0.0134375,0.0115625
2.234,0.0134375,0.011875
2.235,0.0134375,0.011875
2.236,0.0134375,0.011875
2.237,0.0134375,0.0121875
2.238,0.0134375,0.0121875
2.239,0.0134375,0.0121875
2.24,0.0134375,0.0121875
2.241,0.0134375,0.0125
2.242,0.01375,0.0125
2.243,0.01375,0.0128125
2.244,0.01375,0.0128125
2.245,0.01375,0.0128125
2.246,0.01375,0.013125
2.247,0.01375,0.013125
2.248,0.0140625,0.013125
2.249,0.0140625,0.013125
2.25,0.0140625,0.0134375
2.251,0.0140625,0.0134375
2.252,0.0140625,0.0134375
2.253,0.014375,0.0134375
2.254,0.014375,0.0134375
2.255,0.014375,0.01375
2.256,0.014375,0.01375
2.257,0.014375,0.01375
2.258,0.0146875,0.01375
2.259,0.0146875,0.01375
2.26,0.0146875,0.01375
2.261,0.0146875,0.01375
2.262,0.0146875,0.01375
2.263,0.0146875,0.01375
2.264,0.0146875,0.01375
2.265,0.0146875,0.0140625
2.266,0.0146875,0.0140625
2.267,0.0146875,0.01375
2.268,0.015,0.01375
2.269,0.015,0.01375
2.27,0.0146875,0.01375
2.271,0.0146875,0.01375
2.272,0.0146875,0.01375
2.273,0.0146875,0.01375
2.274,0.0146875,0.01375
2.275,0.0146875,0.0134375
2.276,0.0146875,0.0134375
2.277,0.0146875,0.0134375
2.278,0.0146875,0.013125
2.279,0.0146875,0.013125
2.28,0.0146875,0.013125
2.281,0.0146875,0.013125
2.282,0.0146875,0.013125
2.283,0.0146875,0.0128125
2.284,0.014375,0.0128125
2.285,0.014375,0.0128125
2.286,0.014375,0.0125
2.287,0.014375,0.0125
2.288,0.014375,0.0121875
2.289,0.014375,0.0121875
2.29,0.014375,0.0121875
2.291,0.0140625,0.011875
2.292,0.0140625,0.011875
2.293,0.0140625,0.0115625
2.294,0.0140625,0.0115625
2.295,0.0140625,0.0115625
2.296,0.01375,0.01125
2.297,0.01375,0.01125
2.298,0.01375,0.0109375
2.299,0.0134375,0.0109375
2.3,0.0134375,0.0109375
2.301,0.0134375,0.010625
2.302,0.013125,0.010625
2.303,0.013125,0.010625
2.304,0.0128125,0.0103125
2.305,0.0125,0.0103125
2.306,0.0125,0.0103125
2.307,0.0121875,0.0103125
2.308,0.0121875,0.01
2.309,0.011875,0.01
2.31,0.011875,0.01
2.311,0.011875,0.0096875
2.312,0.0115625,0.0096875
2.313,0.0115625,0.0096875
2.314,0.0115625,0.009375
2.315,0.01125,0.009375
2.316,0.01125,0.009375
2.317,0.0109375,0.0090625
2.318,0.0109375,0.0090625
2.319,0.0109375,0.0090625
2.32,0.010625,0.00875
2.321,0.010625,0.00875
2.322,0.010625,0.00875
2.323,0.010625,0.00875
2.324,0.010625,0.0084375
2.325,0.0103125,0.0084375
2.326,0.0103125,0.0084375
2.327,0.0103125,0.0084375
2.328,0.0103125,0.008125
2.329,0.0103125,0.008125
2.33,0.0103125,0.0078125
2.331,0.0103125,0.0078125
2.332,0.0103125,0.0078125
2.333,0.0103125,0.0075
2.334,0.0103125,0.0075
2.335,0.0103125,0.0075
2.336,0.0103125,0.0071875
2.337,0.0103125,0.0071875
2.338,0.0103125,0.0071875
2.339,0.0103125,0.006875
2.34,0.0103125,0.006875
2.341,0.0103125,0.006875
2.342,0.0103125,0.0065625
2.343,0.0103125,0.0065625
2.344,0.0103125,0.0065625
2.345,0.0103125,0.0065625
2.346,0.0103125,0.0065625
2.347,0.0103125,0.00625
2.348,0.01,0.00625
2.349,0.01,0.00625
2.35,0.01,0.00625
2.351,0.01,0.00625
2.352,0.01,0.00625
2.353,0.01,0.00625
2.354,0.0096875,0.00625
2.355,0.0096875,0.00625
2.356,0.0096875,0.00625
2.357,0.0096875,0.00625
2.358,0.009375,0.00625
2.359,0.009375,0.00625
2.36,0.009375,0.00625
2.361,0.0090625,0.00625
2.362,0.0090625,0.00625
2.363,0.0090625,0.00625
2.364,0.0090625,0.00625
2.365,0.00875,0.00625
2.366,0.00875,0.00625
2.367,0.00875,0.00625
2.368,0.00875,0.00625
2.369,0.0084375,0.00625
2.37,0.0084375,0.00625
2.371,0.0084375,0.00625
2.372,0.008125,0.00625
2.373,0.008125,0.00625
2.374,0.008125,0.00625
2.375,0.0078125,0.00625
2.376,0.0078125,0.00625
2.377,0.0075,0.00625
2.378,0.0075,0.00625
2.379,0.0075,0.0059375
2.38,0.0071875,0.0059375
2.381,0.0071875,0.0059375
2.382,0.0071875,0.0059375
2.383,0.006875,0.0059375
2.384,0.006875,0.005625
2.385,0.0065625,0.005625
2.386,0.0065625,0.005625
2.387,0.0065625,0.0053125
2.388,0.0065625,0.0053125
2.389,0.00625,0.0053125
2.39,0.00625,0.005
2.391,0.0059375,0.005
2.392,0.0059375,0.005
2.393,0.0059375,0.0046875
2.394,0.005625,0.0046875
2.395,0.005625,0.0046875
2.396,0.005625,0.004375
2.397,0.0053125,0.004375
2.398,0.0053125,0.004375
2.399,0.005,0.0040625
2.4,0.005,0.0040625
2.401,0.005,0.0040625
2.402,0.0046875,0.00375
2.403,0.0046875,0.00375
2.404,0.0046875,0.00375
2.405,0.004375,0.00375
2.406,0.004375,0.0034375
2.407,0.004375,0.0034375
2.408,0.0040625,0.0034375
2.409,0.0040625,0.0034375
2.41,0.0040625,0.0034375
2.411,0.00375,0.003125
2.412,0.00375,0.003125
2.413,0.00375,0.003125
2.414,0.0034375,0.003125
2.415,0.0034375,0.003125
2.416,0.0034375,0.003125
2.417,0.003125,0.003125
2.418,0.003125,0.003125
2.419,0.003125,0.003125
2.42,0.0028125,0.003125
2.421,0.0028125,0.003125
2.422,0.0028125,0.003125
2.423,0.0025,0.003125
2.424,0.0025,0.003125
2.425,0.0021875,0.003125
2.426,0.0021875,0.003125
2.427,0.0021875,0.003125
2.428,0.001875,0.0034375
2.429,0.001875,0.0034375
2.43,0.001875,0.0034375
2.431,0.001875,0.0034375
2.432,0.001875,0.0034375
2.433,0.0015625,0.00375
2.434,0.0015625,0.00375
2.435,0.0015625,0.00375
2.436,0.00125,0.00375
2.437,0.00125,0.0040625
2.438,0.00125,0.0040625
2.439,0.00125,0.0040625
2.44,0.0009375,0.004375
2.441,0.0009375,0.004375
2.442,0.0009375,0.004375
2.443,0.000625,0.0046875
2.444,0.000625,0.0046875
2.445,0.000625,0.0046875
2.446,0.0003125,0.005
2.447,0.0003125,0.005
2.448,0.0003125,0.005
2.449,0.0003125,0.005
2.45,0.0003125,0.0053125
2.451,0.0003125,0.0053125
2.452,0,0.0053125
2.453,0,0.0053125
2.454,0,0.0053125
2.455,0,0.0053125
2.456,0,0.0053125
2.457,0,0.0053125
2.458,0,0.005625
2.459,0,0.005625
2.46,0,0.005625
2.461,0,0.005625
2.462,0,0.005625
2.463,0,0.005625
2.464,0,0.005625
2.465,0,0.005625
2.466,0,0.005625
2.467,0,0.005625
2.468,0,0.005625
2.469,0.0003125,0.005625
2.47,0.0003125,0.005625
2.471,0.000625,0.005625
2.472,0.000625,0.005625
2.473,0.000625,0.005625
2.474,0.0009375,0.005625
2.475,0.0009375,0.0059375
2.476,0.00125,0.0059375
2.477,0.00125,0.0059375
2.478,0.0015625,0.0059375
2.479,0.0015625,0.0059375
2.48,0.001875,0.0059375
2.481,0.001875,0.0059375
2.482,0.0021875,0.00625
2.483,0.0021875,0.00625
2.484,0.0025,0.00625
2.485,0.0025,0.00625
2.486,0.0028125,0.00625
2.487,0.003125,0.0065625
2.488,0.003125,0.0065625
2.489,0.003125,0.0065625
2.49,0.0034375,0.0065625
2.491,0.00375,0.0065625
2.492,0.00375,0.006875
2.493,0.0040625,0.006875
2.494,0.0040625,0.006875
2.495,0.004375,0.006875
2.496,0.0046875,0.0071875
2.497,0.0046875,0.0071875
2.498,0.005,0.0071875
2.499,0.005,0.0071875
2.5,0.0053125,0.0071875
2.501,0.005625,0.0075
2.502,0.005625,0.0075
2.503,0.0059375,0.0075
2.504,0.00625,0.0078125
2.505,0.00625,0.0078125
2.506,0.0065625,0.0078125
2.507,0.006875,0.0078125
2.508,0.006875,0.008125
2.509,0.006875,0.008125
2.51,0.0071875,0.008125
2.511,0.0075,0.008125
2.512,0.0075,0.0084375
2.513,0.0078125,0.0084375
2.514,0.008125,0.0084375
2.515,0.008125,0.00875
2.516,0.0084375,0.00875
2.517,0.0084375,0.00875
2.518,0.00875,0.0090625
2.519,0.00875,0.0090625
2.52,0.00875,0.0090625
2.521,0.0090625,0.009375
2.522,0.0090625,0.009375
2.523,0.0090625,0.0096875
2.524,0.009375,0.0096875
2.525,0.009375,0.0096875
2.526,0.009375,0.01
2.527,0.009375,0.01
2.528,0.009375,0.0103125
2.529,0.009375,0.0103125
2.53,0.009375,0.0103125
2.531,0.009375,0.010625
2.532,0.0090625,0.010625
2.533,0.0090625,0.010625
2.534,0.0090625,0.010625
2.535,0.0090625,0.010625
2.536,0.0090625,0.010625
2.537,0.0090625,0.0109375
2.538,0.00875,0.0109375
2.539,0.00875,0.0109375
2.54,0.00875,0.0109375
2.541,0.0084375,0.0109375
2.542,0.0084375,0.0109375
2.543,0.0084375,0.0109375
2.544,0.008125,0.0109375
2.545,0.008125,0.0109375
2.546,0.008125,0.010625
2.547,0.0078125,0.010625
2.548,0.0078125,0.010625
2.549,0.0078125,0.010625
2.55,0.0078125,0.010625
2.551,0.0078125,0.0103125
2.552,0.0078125,0.0103125
2.553,0.0078125,0.0103125
2.554,0.0078125,0.01
2.555,0.0078125,0.01
2.556,0.0078125,0.01
2.557,0.008125,0.0096875
2.558,0.008125,0.0096875
2.559,0.008125,0.009375
2.56,0.008125,0.009375
2.561,0.008125,0.009375
2.562,0.0084375,0.0090625
2.563,0.0084375,0.0090625
2.564,0.00875,0.0090625
2.565,0.00875,0.00875
2.566,0.00875,0.00875
2.567,0.0090625,0.0084375
2.568,0.0090625,0.0084375
2.569,0.009375,0.008125
2.57,0.009375,0.008125
2.571,0.0096875,0.008125
2.572,0.0096875,0.0078125
2.573,0.01,0.0078125
2.574,0.01,0.0075
2.575,0.0103125,0.0075
2.576,0.010625,0.0075
2.577,0.010625,0.0071875
2.578,0.0109375,0.0071875
2.579,0.0109375,0.006875
2.58,0.01125,0.006875
2.581,0.01125,0.006875
2.582,0.0115625,0.0065625
2.583,0.0115625,0.0065625
2.584,0.0115625,0.00625
2.585,0.011875,0.00625
2.586,0.011875,0.0059375
2.587,0.0121875,0.0059375
2.588,0.0121875,0.0059375
2.589,0.0125,0.005625
2.59,0.0125,0.005625
2.591,0.0125,0.0053125
2.592,0.0128125,0.0053125
2.593,0.0128125,0.0053125
2.594,0.013125,0.005
2.595,0.013125,0.005
2.596,0.013125,0.0046875
2.597,0.0134375,0.0046875
2.598,0.0134375,0.0046875
2.599,0.01375,0.004375
2.6,0.01375,0.004375
2.601,0.01375,0.004375
2.602,0.01375,0.004375
2.603,0.01375,0.004375
2.604,0.0140625,0.004375
2.605,0.0140625,0.004375
2.606,0.0140625,0.004375
2.607,0.0140625,0.004375
2.608,0.0140625,0.004375
2.609,0.0140625,0.004375
2.61,0.0140625,0.004375
2.611,0.0140625,0.004375
2.612,0.0140625,0.004375
2.613,0.0140625,0.004375
2.614,0.0140625,0.0046875
2.615,0.0140625,0.0046875
2.616,0.0140625,0.005
2.617,0.0140625,0.005
2.618,0.0140625,0.005
2.619,0.0140625,0.0053125
2.62,0.01375,0.0053125
2.621,0.01375,0.005625
2.622,0.01375,0.005625
2.623,0.01375,0.0059375
2.624,0.0134375,0.00625
2.625,0.0134375,0.00625
2.626,0.0134375,0.00625
2.627,0.013125,0.0065625
2.628,0.013125,0.006875
2.629,0.013125,0.006875
2.63,0.013125,0.0071875
2.631,0.0128125,0.0071875
2.632,0.0128125,0.0075
2.633,0.0128125,0.0075
2.634,0.0125,0.0075
2.635,0.0125,0.0078125
2.636,0.0125,0.0078125
2.637,0.0125,0.008125
2.638,0.0121875,0.008125
2.639,0.0121875,0.008125
2.64,0.0121875,0.0084375
2.641,0.0121875,0.0084375
2.642,0.0121875,0.00875
2.643,0.0121875,0.00875
2.644,0.011875,0.00875
2.645,0.011875,0.0090625
2.646,0.011875,0.0090625
2.647,0.011875,0.0090625
2.648,0.011875,0.009375
2.649,0.011875,0.009375
2.65,0.011875,0.009375
2.651,0.011875,0.0096875
2.652,0.0115625,0.0096875
2.653,0.0115625,0.0096875
2.654,0.0115625,0.0096875
2.655,0.0115625,0.0096875
2.656,0.011875,0.0096875
2.657,0.011875,0.01
2.658,0.011875,0.01
2.659,0.011875,0.01
2.66,0.011875,0.01
2.661,0.011875,0.01
2.662,0.011875,0.01
2.663,0.011875,0.01
2.664,0.011875,0.0103125
2.665,0.011875,0.0103125
2.666,0.011875,0.0103125
2.667,0.011875,0.0103125
2.668,0.011875,0.0103125
2.669,0.011875,0.0103125
2.67,0.0121875,0.0103125
2.671,0.0121875,0.0103125
2.672,0.011875,0.010625
2.673,0.011875,0.0103125
2.674,0.011875,0.0103125
2.675,0.011875,0.0103125
2.676,0.011875,0.0103125
2.677,0.011875,0.0103125
2.678,0.011875,0.0103125
2.679,0.0115625,0.0103125
2.68,0.0115625,0.0103125
2.681,0.0115625,0.0103125
2.682,0.01125,0.0103125
2.683,0.01125,0.0103125
2.684,0.0109375,0.0103125
2.685,0.010625,0.0103125
2.686,0.010625,0.0103125
2.687,0.0103125,0.0103125
2.688,0.01,0.0103125
2.689,0.0096875,0.0103125
2.69,0.009375,0.0103125
2.691,0.0090625,0.0103125
2.692,0.00875,0.0103125
2.693,0.0084375,0.0103125
2.694,0.0078125,0.0103125
2.695,0.0075,0.01
2.696,0.0071875,0.01
2.697,0.006875,0.01
2.698,0.00625,0.01
2.699,0.0059375,0.01
2.7,0.005625,0.0096875
2.701,0.005,0.0096875
2.702,0.0046875,0.0096875
2.703,0.004375,0.009375
2.704,0.00375,0.009375
2.705,0.0034375,0.009375
2.706,0.003125,0.0090625
2.707,0.0025,0.0090625
2.708,0.0021875,0.0090625
2.709,0.001875,0.00875
2.71,0.0015625,0.00875
2.711,0.0009375,0.00875
2.712,0.000625,0.0084375
2.713,0.0003125,0.0084375
2.714,0,0.008125
2.715,-0.0003125,0.008125
2.716,-0.000625,0.0078125
2.717,-0.0009375,0.0078125
2.718,-0.00125,0.0078125
2.719,-0.0015625,0.0075
2.72,-0.001875,0.0075
2.721,-0.001875,0.0071875
2.722,-0.0021875,0.0071875
2.723,-0.0025,0.006875
2.724,-0.0028125,0.006875
2.725,-0.0028125,0.006875
2.726,-0.003125,0.0065625
2.727,-0.003125,0.0065625
2.728,-0.003125,0.0065625
2.729,-0.0034375,0.00625
2.73,-0.0034375,0.00625
2.731,-0.0034375,0.00625
2.732,-0.0034375,0.00625
2.733,-0.00375,0.00625
2.734,-0.00375,0.00625
2.735,-0.00375,0.00625
2.736,-0.00375,0.00625
2.737,-0.00375,0.00625
2.738,-0.00375,0.00625
2.739,-0.00375,0.00625
2.74,-0.00375,0.00625
2.741,-0.00375,0.00625
2.742,-0.0034375,0.0065625
2.743,-0.0034375,0.0065625
2.744,-0.0034375,0.0065625
2.745,-0.0034375,0.006875
2.746,-0.0034375,0.006875
2.747,-0.003125,0.006875
2.748,-0.003125,0.0071875
2.749,-0.003125,0.0071875
2.75,-0.0028125,0.0071875
2.751,-0.0028125,0.0075
2.752,-0.0025,0.0075
2.753,-0.0025,0.0075
2.754,-0.0021875,0.0078125
2.755,-0.001875,0.0078125
2.756,-0.001875,0.0078125
2.757,-0.0015625,0.0078125
2.758,-0.00125,0.0078125
2.759,-0.00125,0.0078125
2.76,-0.0009375,0.008125
2.761,-0.000625,0.008125
2.762,-0.000625,0.008125
2.763,0,0.008125
2.764,0.0003125,0.0078125
2.765,0.0003125,0.0078125
2.766,0.000625,0.0078125
2.767,0.0009375,0.0078125
2.768,0.00125,0.0078125
2.769,0.0015625,0.0075
2.77,0.001875,0.0075
2.771,0.0021875,0.0075
2.772,0.0025,0.0071875
2.773,0.0028125,0.0071875
2.774,0.0028125,0.006875
2.775,0.003125,0.0065625
2.776,0.00375,0.00625
2.777,0.00375,0.00625
2.778,0.0040625,0.0059375
2.779,0.004375,0.005625
2.78,0.004375,0.005625
2.781,0.0046875,0.0053125
2.782,0.005,0.005
2.783,0.0053125,0.005
2.784,0.0053125,0.0046875
2.785,0.005625,0.004375
2.786,0.005625,0.004375
2.787,0.005625,0.0040625
2.788,0.0059375,0.0040625
2.789,0.0059375,0.00375
2.79,0.0059375,0.0034375
2.791,0.00625,0.0034375
2.792,0.00625,0.003125
2.793,0.00625,0.003125
2.794,0.00625,0.0028125
2.795,0.0059375,0.0028125
2.796,0.0059375,0.0025
2.797,0.0059375,0.0025
2.798,0.0059375,0.0025
2.799,0.0059375,0.0021875
2.8,0.0059375,0.0021875
2.801,0.0059375,0.0021875
2.802,0.005625,0.001875
2.803,0.005625,0.001875
2.804,0.005625,0.001875
2.805,0.005625,0.0015625
2.806,0.0053125,0.0015625
2.807,0.0053125,0.0015625
2.808,0.0053125,0.0015625
2.809,0.005,0.00125
2.81,0.005,0.00125
2.811,0.0046875,0.00125
2.812,0.0046875,0.00125
2.813,0.0046875,0.0009375
2.814,0.0046875,0.0009375
2.815,0.004375,0.0009375
2.816,0.004375,0.0009375
2.817,0.004375,0.0009375
2.818,0.0040625,0.000625
2.819,0.0040625,0.000625
2.82,0.0040625,0.000625
2.821,0.00375,0.000625
2.822,0.00375,0.000625
2.823,0.00375,0.000625
2.824,0.00375,0.000625
2.825,0.00375,0.000625
2.826,0.00375,0.000625
2.827,0.0034375,0.000625
2.828,0.0034375,0.000625
2.829,0.0034375,0.000625
2.83,0.0034375,0.000625
2.831,0.0034375,0.000625
2.832,0.0034375,0.000625
2.833,0.0034375,0.000625
2.834,0.003125,0.000625
2.835,0.003125,0.000625
2.836,0.003125,0.000625
2.837,0.003125,0.000625
2.838,0.003125,0.000625
2.839,0.003125,0.000625
2.84,0.0028125,0.000625
2.841,0.0028125,0.000625
2.842,0.0028125,0.000625
2.843,0.0028125,0.000625
2.844,0.0028125,0.000625
2.845,0.0025,0.000625
2.846,0.0025,0.0009375
2.847,0.0025,0.0009375
2.848,0.0021875,0.0009375
2.849,0.0021875,0.0009375
2.85,0.0021875,0.0009375
2.851,0.001875,0.00125
2.852,0.001875,0.00125
2.853,0.001875,0.00125
2.854,0.0015625,0.00125
2.855,0.0015625,0.00125
2.856,0.0015625,0.0015625
2.857,0.00125,0.0015625
2.858,0.00125,0.0015625
2.859,0.00125,0.001875
2.86,0.0009375,0.001875
2.861,0.0009375,0.001875
2.862,0.0009375,0.0021875
2.863,0.000625,0.0021875
2.864,0.000625,0.0021875
2.865,0.000625,0.0025
2.866,0.000625,0.0025
2.867,0.000625,0.0028125
2.868,0.000625,0.0028125
2.869,0.0003125,0.0028125
2.87,0.0003125,0.003125
2.871,0.0003125,0.003125
2.872,0.0003125,0.0034375
2.873,0.0003125,0.0034375
2.874,0.0003125,0.0034375
2.875,0.0003125,0.00375
2.876,0.0003125,0.00375
2.877,0.0003125,0.00375
2.878,0.000625,0.0040625
2.879,0.000625,0.0040625
2.88,0.000625,0.004375
2.881,0.000625,0.004375
2.882,0.000625,0.004375
2.883,0.000625,0.0046875
2.884,0.000625,0.0046875
2.885,0.000625,0.0046875
2.886,0.0009375,0.005
2.887,0.0009375,0.005
2.888,0.0009375,0.005
2.889,0.0009375,0.0053125
2.89,0.0009375,0.0053125
2.891,0.0009375,0.0053125
2.892,0.00125,0.005625
2.893,0.00125,0.005625
2.894,0.00125,0.005625
2.895,0.00125,0.005625
2.896,0.00125,0.005625
2.897,0.00125,0.005625
2.898,0.0015625,0.0059375
2.899,0.0015625,0.0059375
2.9,0.0015625,0.0059375
2.901,0.0015625,0.0059375
2.902,0.0015625,0.0059375
2.903,0.0015625,0.00625
2.904,0.0015625,0.00625
2.905,0.001875,0.00625
2.906,0.001875,0.00625
2.907,0.001875,0.00625
2.908,0.001875,0.00625
2.909,0.001875,0.00625
2.91,0.001875,0.00625
2.911,0.001875,0.00625
2.912,0.001875,0.00625
2.913,0.001875,0.00625
2.914,0.001875,0.00625
2.915,0.0021875,0.00625
2.916,0.0021875,0.00625
2.917,0.0021875,0.00625
2.918,0.0021875,0.00625
2.919,0.0021875,0.0059375
2.92,0.0021875,0.0059375
2.921,0.0021875,0.0059375
2.922,0.0021875,0.0059375
2.923,0.0021875,0.005625
2.924,0.0025,0.005625
2.925,0.0025,0.005625
2.926,0.0025,0.0053125
2.927,0.0025,0.0053125
2.928,0.0025,0.0053125
2.929,0.0025,0.005
2.93,0.0028125,0.005
2.931,0.0028125,0.005
2.932,0.0028125,0.0046875
2.933,0.0028125,0.0046875
2.934,0.0028125,0.0046875
2.935,0.0028125,0.004375
2.936,0.0028125,0.004375
2.937,0.0028125,0.0040625
2.938,0.003125,0.0040625
2.939,0.003125,0.0040625
2.94,0.003125,0.00375
2.941,0.003125,0.00375
2.942,0.003125,0.00375
2.943,0.003125,0.00375
2.944,0.0034375,0.00375
2.945,0.0034375,0.0034375
2.946,0.0034375,0.0034375
2.947,0.0034375,0.0034375
2.948,0.0034375,0.0034375
2.949,0.00375,0.0034375
2.95,0.00375,0.0034375
2.951,0.00375,0.0034375
2.952,0.0040625,0.0034375
2.953,0.0040625,0.003125
2.954,0.0040625,0.003125
2.955,0.0040625,0.003125
2.956,0.004375,0.003125
2.957,0.004375,0.003125
2.958,0.0046875,0.003125
2.959,0.0046875,0.003125
2.96,0.0046875,0.003125
2.961,0.005,0.003125
2.962,0.005,0.003125
2.963,0.005,0.0034375
2.964,0.0053125,0.0034375
2.965,0.0053125,0.0034375
2.966,0.0053125,0.0034375
2.967,0.0053125,0.0034375
2.968,0.005625,0.0034375
2.969,0.005625,0.0034375
2.97,0.005625,0.0034375
2.971,0.005625,0.0034375
2.972,0.005625,0.0034375
2.973,0.005625,0.0034375
2.974,0.005625,0.0034375
2.975,0.005625,0.003125
2.976,0.005625,0.003125
2.977,0.005625,0.003125
2.978,0.005625,0.003125
2.979,0.005625,0.003125
2.98,0.005625,0.003125
2.981,0.005625,0.003125
2.982,0.005625,0.003125
2.983,0.005625,0.003125
2.984,0.005625,0.003125
2.985,0.0053125,0.003125
2.986,0.0053125,0.003125
2.987,0.0053125,0.003125
2.988,0.005,0.003125
2.989,0.005,0.0028125
2.99,0.005,0.0028125
2.991,0.005,0.0028125
2.992,0.0046875,0.0025
2.993,0.0046875,0.0025
2.994,0.0046875,0.0025
2.995,0.004375,0.0021875
2.996,0.004375,0.0021875
2.997,0.004375,0.001875
2.998,0.004375,0.001875
2.999,0.0040625,0.001875
3,0.0040625,0.0015625
3.001,0.0040625,0.0015625
3.002,0.0040625,0.00125
3.003,0.00375,0.00125
3.004,0.00375,0.00125
3.005,0.00375,0.0009375
3.006,0.00375,0.0009375
3.007,0.00375,0.000625
3.008,0.00375,0.000625
3.009,0.00375,0.000625
3.01,0.0034375,0.0003125
3.011,0.0034375,0.0003125
3.012,0.0034375,0
3.013,0.0034375,0
3.014,0.0034375,0
3.015,0.0034375,-0.0003125
3.016,0.0034375,-0.0003125
3.017,0.0034375,-0.000625
3.018,0.0034375,-0.000625
3.019,0.0034375,-0.0009375
3.02,0.0034375,-0.0009375
3.021,0.0034375,-0.0009375
3.022,0.0034375,-0.00125
3.023,0.0034375,-0.00125
3.024,0.003125,-0.0015625
3.025,0.003125,-0.0015625
3.026,0.003125,-0.0015625
3.027,0.003125,-0.0015625
3.028,0.003125,-0.001875
3.029,0.003125,-0.001875
3.03,0.003125,-0.001875
3.031,0.003125,-0.0021875
3.032,0.003125,-0.0021875
3.033,0.003125,-0.0021875
3.034,0.003125,-0.0025
3.035,0.003125,-0.0025
3.036,0.003125,-0.0025
3.037,0.0028125,-0.0025
3.038,0.0028125,-0.0025
3.039,0.0028125,-0.0028125
3.04,0.0028125,-0.0028125
3.041,0.0028125,-0.0028125
3.042,0.0028125,-0.0028125
3.043,0.0025,-0.0028125
3.044,0.0025,-0.0028125
3.045,0.0025,-0.0028125
3.046,0.0025,-0.0028125
3.047,0.0025,-0.0028125
3.048,0.0025,-0.0028125
3.049,0.0025,-0.0028125
3.05,0.0025,-0.0028125
3.051,0.0028125,-0.0028125
3.052,0.0028125,-0.0028125
3.053,0.0028125,-0.0028125
3.054,0.0028125,-0.0028125
3.055,0.0028125,-0.0028125
3.056,0.0028125,-0.0028125
3.057,0.0028125,-0.0025
3.058,0.0028125,-0.0025
3.059,0.003125,-0.0025
3.06,0.003125,-0.0025
3.061,0.003125,-0.0021875
3.062,0.003125,-0.0021875
3.063,0.003125,-0.0021875
3.064,0.003125,-0.001875
3.065,0.0034375,-0.001875
3.066,0.0034375,-0.0015625
3.067,0.0034375,-0.00125
3.068,0.0034375,-0.00125
3.069,0.00375,-0.00125
3.07,0.00375,-0.0009375
3.071,0.0040625,-0.000625
3.072,0.0040625,-0.0003125
3.073,0.0040625,-0.0003125
3.074,0.004375,0
3.075,0.004375,0.0003125
3.076,0.0046875,0.0003125
3.077,0.0046875,0.0009375
3.078,0.0046875,0.0009375
3.079,0.005,0.0015625
3.08,0.005,0.0015625
3.081,0.0053125,0.0021875
3.082,0.0053125,0.0025
3.083,0.005625,0.0028125
3.084,0.0059375,0.003125
3.085,0.0059375,0.00375
3.086,0.00625,0.0040625
3.087,0.00625,0.0046875
3.088,0.006875,0.005
3.089,0.006875,0.005625
3.09,0.0071875,0.0059375
3.091,0.0075,0.00625
3.092,0.0078125,0.006875
3.093,0.008125,0.0075
3.094,0.0084375,0.0078125
3.095,0.00875,0.0084375
3.096,0.0090625,0.0090625
3.097,0.009375,0.009375
3.098,0.0096875,0.0103125
3.099,0.01,0.0109375
3.1,0.0103125,0.01125
3.101,0.010625,0.011875
3.102,0.0109375,0.0125
3.103,0.01125,0.0128125
3.104,0.0115625,0.01375
3.105,0.0115625,0.0140625
3.106,0.0121875,0.015
3.107,0.0121875,0.0153125
3.108,0.0125,0.01625
3.109,0.0128125,0.0165625
3.11,0.0128125,0.0175
3.111,0.013125,0.0178125
3.112,0.013125,0.0184375
3.113,0.0134375,0.01875
3.114,0.0134375,0.0196875
3.115,0.0134375,0.02
3.116,0.01375,0.020625
3.117,0.01375,0.02125
3.118,0.01375,0.0215625
3.119,0.01375,0.021875
3.12,0.01375,0.0225
3.121,0.01375,0.0228125
3.122,0.01375,0.0234375
3.123,0.01375,0.02375
3.124,0.01375,0.024375
3.125,0.01375,0.0246875
3.126,0.01375,0.025
3.127,0.01375,0.0253125
3.128,0.0134375,0.025625
3.129,0.0134375,0.0259375
3.13,0.0134375,0.02625
3.131,0.0134375,0.0265625
3.132,0.0134375,0.0265625
3.133,0.013125,0.026875
3.134,0.013125,0.0271875
3.135,0.013125,0.0271875
3.136,0.013125,0.0275
3.137,0.0128125,0.0275
3.138,0.0128125,0.0278125
3.139,0.0128125,0.0278125
3.14,0.0125,0.0278125
3.141,0.0125,0.028125
3.142,0.0121875,0.028125
3.143,0.0121875,0.028125
3.144,0.0121875,0.028125
3.145,0.011875,0.028125
3.146,0.011875,0.0284375
3.147,0.011875,0.0284375
3.148,0.0115625,0.028125
3.149,0.0115625,0.028125
3.15,0.01125,0.028125
3.151,0.01125,0.028125
3.152,0.0109375,0.028125
3.153,0.0109375,0.028125
3.154,0.010625,0.028125
3.155,0.0103125,0.0278125
3.156,0.01,0.0278125
3.157,0.01,0.0278125
3.158,0.01,0.0275
3.159,0.0096875,0.0275
3.16,0.009375,0.0275
3.161,0.0090625,0.0275
3.162,0.0090625,0.0271875
3.163,0.00875,0.0271875
3.164,0.00875,0.0271875
3.165,0.0084375,0.026875
3.166,0.008125,0.026875
3.167,0.008125,0.0265625
3.168,0.0078125,0.0265625
3.169,0.0075,0.0265625
3.17,0.0075,0.02625
3.171,0.0075,0.02625
3.172,0.0071875,0.02625
3.173,0.006875,0.0259375
3.174,0.006875,0.0259375
3.175,0.0065625,0.025625
3.176,0.0065625,0.025625
3.177,0.00625,0.025625
3.178,0.0059375,0.0253125
3.179,0.0059375,0.0253125
3.18,0.005625,0.025
3.181,0.005625,0.025
3.182,0.005625,0.025
3.183,0.0053125,0.025
3.184,0.0053125,0.025
3.185,0.005,0.025
3.186,0.0046875,0.0246875
3.187,0.0046875,0.0246875
3.188,0.004375,0.0246875
3.189,0.004375,0.0246875
3.19,0.0040625,0.0246875
3.191,0.00375,0.0246875
3.192,0.00375,0.0246875
3.193,0.00375,0.0246875
3.194,0.0034375,0.0246875
3.195,0.0034375,0.0246875
3.196,0.003125,0.0246875
3.197,0.0028125,0.0246875
3.198,0.0028125,0.0246875
3.199,0.0025,0.0246875
3.2,0.0025,0.0246875
3.201,0.0021875,0.0246875
3.202,0.001875,0.0246875
3.203,0.001875,0.0246875
3.204,0.0015625,0.0246875
3.205,0.0015625,0.0246875
3.206,0.00125,0.025
3.207,0.00125,0.025
3.208,0.00125,0.0246875
3.209,0.0009375,0.0246875
3.21,0.0009375,0.0246875
3.211,0.0009375,0.0246875
3.212,0.000625,0.0246875
3.213,0.000625,0.0246875
3.214,0.000625,0.0246875
3.215,0.0003125,0.0246875
3.216,0.0003125,0.0246875
3.217,0.0003125,0.0246875
3.218,0,0.024375
3.219,0,0.024375
3.22,0,0.024375
3.221,0,0.024375
3.222,0,0.024375
3.223,-0.0003125,0.0240625
3.224,-0.0003125,0.0240625
3.225,-0.0003125,0.0240625
3.226,-0.0003125,0.02375
3.227,-0.0003125,0.02375
3.228,-0.0003125,0.02375
3.229,-0.0003125,0.0234375
3.23,-0.0003125,0.0234375
3.231,0,0.023125
3.232,0,0.023125
3.233,0,0.023125
3.234,0,0.0228125
3.235,0,0.0228125
3.236,0,0.0225
3.237,0,0.0225
3.238,0,0.0221875
3.239,0,0.0221875
3.24,0,0.021875
3.241,0,0.021875
3.242,0.0003125,0.0215625
3.243,0.0003125,0.0215625
3.244,0.0003125,0.02125
3.245,0.0003125,0.02125
3.246,0.000625,0.0209375
3.247,0.000625,0.0209375
3.248,0.000625,0.0209375
3.249,0.000625,0.020625
3.25,0.000625,0.020625
3.251,0.0009375,0.0203125
3.252,0.0009375,0.0203125
3.253,0.0009375,0.0203125
3.254,0.0009375,0.02
3.255,0.0009375,0.02
3.256,0.00125,0.02
3.257,0.00125,0.02
3.258,0.00125,0.02
3.259,0.00125,0.02
3.26,0.00125,0.02
3.261,0.00125,0.02
3.262,0.00125,0.02
3.263,0.00125,0.02
3.264,0.0015625,0.02
3.265,0.0015625,0.02
3.266,0.0015625,0.0203125
3.267,0.0015625,0.0203125
3.268,0.0015625,0.0203125
3.269,0.0015625,0.0203125
3.27,0.0015625,0.020625
3.271,0.0015625,0.020625
3.272,0.0015625,0.020625
3.273,0.0015625,0.020625
3.274,0.0015625,0.0209375
3.275,0.0015625,0.0209375
3.276,0.0015625,0.0209375
3.277,0.0015625,0.02125
3.278,0.0015625,0.02125
3.279,0.0015625,0.02125
3.28,0.0015625,0.0215625
3.281,0.0015625,0.0215625
3.282,0.0015625,0.0215625
3.283,0.0015625,0.021875
3.284,0.0015625,0.021875
3.285,0.0015625,0.0221875
3.286,0.001875,0.0221875
3.287,0.001875,0.0221875
3.288,0.001875,0.0225
3.289,0.0021875,0.0225
3.29,0.0021875,0.0225
3.291,0.0025,0.0228125
3.292,0.0025,0.0228125
3.293,0.0025,0.023125
3.294,0.0028125,0.023125
3.295,0.0028125,0.023125
3.296,0.003125,0.0234375
3.297,0.003125,0.0234375
3.298,0.0034375,0.02375
3.299,0.00375,0.02375
3.3,0.00375,0.02375
3.301,0.0040625,0.0240625
3.302,0.004375,0.0240625
3.303,0.004375,0.0240625
3.304,0.0046875,0.024375
3.305,0.005,0.024375
3.306,0.005,0.024375
3.307,0.0053125,0.0246875
3.308,0.005625,0.0246875
3.309,0.0059375,0.0246875
3.31,0.0059375,0.0246875
3.311,0.00625,0.025
3.312,0.0065625,0.025
3.313,0.0065625,0.025
3.314,0.006875,0.025
3.315,0.0071875,0.025
3.316,0.0075,0.025
3.317,0.0075,0.0246875
3.318,0.0078125,0.0246875
3.319,0.0078125,0.0246875
3.32,0.008125,0.0246875
3.321,0.008125,0.0246875
3.322,0.008125,0.0246875
3.323,0.0084375,0.0246875
3.324,0.0084375,0.0246875
3.325,0.0084375,0.0246875
3.326,0.00875,0.024375
3.327,0.00875,0.024375
3.328,0.00875,0.024375
3.329,0.0090625,0.024375
3.33,0.0090625,0.024375
3.331,0.0090625,0.024375
3.332,0.0090625,0.024375
3.333,0.009375,0.024375
3.334,0.009375,0.024375
3.335,0.009375,0.0240625
3.336,0.009375,0.0240625
3.337,0.009375,0.024375
3.338,0.009375,0.024375
3.339,0.0096875,0.024375
3.34,0.0096875,0.024375
3.341,0.0096875,0.024375
3.342,0.0096875,0.024375
3.343,0.0096875,0.024375
3.344,0.0096875,0.024375
3.345,0.0096875,0.024375
3.346,0.0096875,0.024375
3.347,0.0096875,0.024375
3.348,0.0096875,0.0246875
3.349,0.0096875,0.0246875
3.35,0.0096875,0.0246875
3.351,0.0096875,0.0246875
3.352,0.0096875,0.0246875
3.353,0.01,0.0246875
3.354,0.01,0.0246875
3.355,0.01,0.0246875
3.356,0.01,0.0246875
3.357,0.0096875,0.0246875
3.358,0.0096875,0.0246875
3.359,0.0096875,0.0246875
3.36,0.0096875,0.0246875
3.361,0.0096875,0.024375
3.362,0.0096875,0.024375
3.363,0.0096875,0.024375
3.364,0.0096875,0.024375
3.365,0.0096875,0.024375
3.366,0.0096875,0.0240625
3.367,0.0096875,0.0240625
3.368,0.0096875,0.0240625
3.369,0.0096875,0.02375
3.37,0.0096875,0.02375
3.371,0.009375,0.0234375
3.372,0.009375,0.0234375
3.373,0.009375,0.023125
3.374,0.0090625,0.0228125
3.375,0.0090625,0.0228125
3.376,0.00875,0.0225
3.377,0.00875,0.021875
3.378,0.00875,0.021875
3.379,0.0084375,0.0215625
3.38,0.0084375,0.02125
3.381,0.0084375,0.0209375
3.382,0.008125,0.020625
3.383,0.008125,0.0203125
3.384,0.0078125,0.02
3.385,0.0078125,0.019375
3.386,0.0078125,0.019375
3.387,0.0075,0.01875
3.388,0.0075,0.0184375
3.389,0.0071875,0.018125
3.39,0.0071875,0.0175
3.391,0.0071875,0.0171875
3.392,0.006875,0.016875
3.393,0.006875,0.01625
3.394,0.0065625,0.0159375
3.395,0.0065625,0.0153125
3.396,0.00625,0.015
3.397,0.00625,0.014375
3.398,0.0059375,0.0140625
3.399,0.0059375,0.0134375
3.4,0.0059375,0.013125
3.401,0.005625,0.0125
3.402,0.0053125,0.0121875
3.403,0.0053125,0.0115625
3.404,0.0053125,0.01125
3.405,0.005,0.010625
3.406,0.005,0.0103125
3.407,0.0046875,0.01
3.408,0.0046875,0.009375
3.409,0.0046875,0.0090625
3.41,0.004375,0.00875
3.411,0.004375,0.0084375
3.412,0.0040625,0.0078125
3.413,0.0040625,0.0075
3.414,0.00375,0.0071875
3.415,0.00375,0.006875
3.416,0.0034375,0.0065625
3.417,0.003125,0.00625
3.418,0.003125,0.0059375
3.419,0.0028125,0.005625
3.42,0.0028125,0.005625
3.421,0.0025,0.0053125
3.422,0.0021875,0.005
3.423,0.0021875,0.0046875
3.424,0.001875,0.0046875
3.425,0.001875,0.004375
3.426,0.0015625,0.004375
3.427,0.00125,0.0040625
3.428,0.00125,0.0040625
3.429,0.0009375,0.0040625
3.43,0.000625,0.00375
3.431,0.0003125,0.00375
3.432,0,0.0034375
3.433,0,0.0034375
3.434,-0.0003125,0.0034375
3.435,-0.000625,0.0034375
3.436,-0.0009375,0.0034375
3.437,-0.0009375,0.003125
3.438,-0.00125,0.003125
3.439,-0.0015625,0.003125
3.44,-0.001875,0.003125
3.441,-0.001875,0.003125
3.442,-0.0021875,0.003125
3.443,-0.0025,0.003125
3.444,-0.0025,0.003125
3.445,-0.0025,0.003125
3.446,-0.0028125,0.0028125
3.447,-0.003125,0.0028125
3.448,-0.003125,0.0028125
3.449,-0.0034375,0.0028125
3.45,-0.0034375,0.0028125
3.451,-0.00375,0.0028125
3.452,-0.0040625,0.0028125
3.453,-0.0040625,0.0028125
3.454,-0.004375,0.0028125
3.455,-0.004375,0.0028125
3.456,-0.0046875,0.0028125
3.457,-0.0046875,0.003125
3.458,-0.005,0.003125
3.459,-0.005,0.003125
3.46,-0.0053125,0.003125
3.461,-0.0053125,0.003125
3.462,-0.0053125,0.003125
3.463,-0.005625,0.003125
3.464,-0.005625,0.003125
3.465,-0.005625,0.003125
3.466,-0.005625,0.003125
3.467,-0.005625,0.0034375
3.468,-0.0059375,0.0034375
3.469,-0.0059375,0.0034375
3.47,-0.0059375,0.0034375
3.471,-0.0059375,0.00375
3.472,-0.00625,0.00375
3.473,-0.00625,0.00375
3.474,-0.00625,0.0040625
3.475,-0.00625,0.0040625
3.476,-0.00625,0.0040625
3.477,-0.0065625,0.0040625
3.478,-0.0065625,0.0040625
3.479,-0.0065625,0.004375
3.48,-0.0065625,0.004375
3.481,-0.0065625,0.004375
3.482,-0.006875,0.0046875
3.483,-0.006875,0.0046875
3.484,-0.006875,0.0046875
3.485,-0.006875,0.0046875
3.486,-0.006875,0.0046875
3.487,-0.0071875,0.005
3.488,-0.0071875,0.005
3.489,-0.0071875,0.005
3.49,-0.0071875,0.005
3.491,-0.0075,0.005
3.492,-0.0075,0.0046875
3.493,-0.0078125,0.0046875
3.494,-0.0078125,0.0046875
3.495,-0.0078125,0.0046875
3.496,-0.008125,0.0046875
3.497,-0.008125,0.0046875
3.498,-0.0084375,0.004375
3.499,-0.0084375,0.004375
3.5,-0.0084375,0.0040625
3.501,-0.00875,0.0040625
3.502,-0.00875,0.0040625
3.503,-0.00875,0.00375
3.504,-0.0090625,0.00375
3.505,-0.0090625,0.00375
3.506,-0.009375,0.0034375
3.507,-0.009375,0.003125
3.508,-0.0096875,0.003125
3.509,-0.0096875,0.0028125
3.51,-0.0096875,0.0025
3.511,-0.01,0.0025
3.512,-0.01,0.0021875
3.513,-0.01,0.001875
3.514,-0.0103125,0.001875
3.515,-0.0103125,0.0015625
3.516,-0.010625,0.00125
3.517,-0.010625,0.00125
3.518,-0.0109375,0.000625
3.519,-0.0109375,0.000625
3.52,-0.01125,0.0003125
3.521,-0.01125,0
3.522,-0.0115625,0
3.523,-0.011875,-0.000625
3.524,-0.011875,-0.000625
3.525,-0.0121875,-0.0009375
3.526,-0.0121875,-0.00125
3.527,-0.0125,-0.00125
3.528,-0.0128125,-0.001875
3.529,-0.0128125,-0.0021875
3.53,-0.0128125,-0.0021875
3.531,-0.013125,-0.0025
3.532,-0.0134375,-0.0028125
3.533,-0.01375,-0.0028125
3.534,-0.01375,-0.003125
3.535,-0.0140625,-0.0034375
3.536,-0.0140625,-0.00375
3.537,-0.014375,-0.0040625
3.538,-0.014375,-0.0040625
3.539,-0.014375,-0.004375
3.54,-0.0146875,-0.004375
3.541,-0.0146875,-0.0046875
3.542,-0.0146875,-0.0046875
3.543,-0.0146875,-0.0046875
3.544,-0.0146875,-0.005
3.545,-0.0146875,-0.005
3.546,-0.0146875,-0.005
3.547,-0.0146875,-0.005
3.548,-0.0146875,-0.005
3.549,-0.0146875,-0.005
3.55,-0.0146875,-0.005
3.551,-0.014375,-0.005
3.552,-0.014375,-0.005
3.553,-0.014375,-0.005
3.554,-0.0140625,-0.005
3.555,-0.01375,-0.0046875
3.556,-0.01375,-0.0046875
3.557,-0.0134375,-0.0046875
3.558,-0.013125,-0.004375
3.559,-0.013125,-0.004375
3.56,-0.0128125,-0.004375
3.561,-0.0125,-0.0040625
3.562,-0.0121875,-0.0040625
3.563,-0.011875,-0.00375
3.564,-0.0115625,-0.00375
3.565,-0.01125,-0.0034375
3.566,-0.0109375,-0.0034375
3.567,-0.010625,-0.003125
3.568,-0.0103125,-0.0028125
3.569,-0.01,-0.0028125
3.57,-0.0096875,-0.0025
3.571,-0.009375,-0.0025
3.572,-0.0090625,-0.0021875
3.573,-0.00875,-0.0021875
3.574,-0.00875,-0.001875
3.575,-0.0084375,-0.001875
3.576,-0.008125,-0.001875
3.577,-0.008125,-0.0015625
3.578,-0.0078125,-0.0015625
3.579,-0.0078125,-0.00125
3.58,-0.0075,-0.00125
3.581,-0.0075,-0.0009375
3.582,-0.0075,-0.0009375
3.583,-0.0071875,-0.000625
3.584,-0.0071875,-0.000625
3.585,-0.0071875,-0.0003125
3.586,-0.0071875,-0.0003125
3.587,-0.0071875,0
3.588,-0.006875,0.0003125
3.589,-0.0071875,0.0003125
3.59,-0.0071875,0.0003125
3.591,-0.0071875,0.000625
3.592,-0.0071875,0.0009375
3.593,-0.0071875,0.0009375
3.594,-0.0071875,0.00125
3.595,-0.0071875,0.0015625
3.596,-0.0071875,0.0015625
3.597,-0.0075,0.001875
3.598,-0.0075,0.001875
3.599,-0.0075,0.0021875
3.6,-0.0078125,0.0025
3.601,-0.0078125,0.0028125
3.602,-0.008125,0.0028125
3.603,-0.008125,0.003125
3.604,-0.0084375,0.0034375
3.605,-0.00875,0.0034375
3.606,-0.00875,0.0040625
3.607,-0.00875,0.0040625
3.608,-0.0090625,0.004375
3.609,-0.009375,0.004375
3.61,-0.009375,0.005
3.611,-0.01,0.005
3.612,-0.01,0.0053125
3.613,-0.0103125,0.005625
3.614,-0.0103125,0.005625
3.615,-0.010625,0.0059375
3.616,-0.0109375,0.00625
3.617,-0.0109375,0.0065625
3.618,-0.01125,0.006875
3.619,-0.0115625,0.006875
3.62,-0.0115625,0.0071875
3.621,-0.0115625,0.0075
3.622,-0.011875,0.0075
3.623,-0.011875,0.008125
3.624,-0.011875,0.008125
3.625,-0.011875,0.0084375
3.626,-0.011875,0.00875
3.627,-0.011875,0.0090625
3.628,-0.011875,0.009375
3.629,-0.011875,0.009375
3.63,-0.011875,0.01
3.631,-0.011875,0.0103125
3.632,-0.011875,0.0103125
3.633,-0.0115625,0.010625
3.634,-0.0115625,0.0109375
3.635,-0.0115625,0.01125
3.636,-0.01125,0.01125
3.637,-0.0109375,0.0115625
3.638,-0.010625,0.011875
3.639,-0.010625,0.0121875
3.64,-0.01,0.0125
3.641,-0.0096875,0.0125
3.642,-0.009375,0.0128125
3.643,-0.0090625,0.013125
3.644,-0.0084375,0.0134375
3.645,-0.008125,0.0134375
3.646,-0.0075,0.01375
3.647,-0.0071875,0.0140625
3.648,-0.0065625,0.0140625
3.649,-0.00625,0.014375
3.65,-0.005625,0.014375
3.651,-0.005,0.0146875
3.652,-0.0046875,0.0146875
3.653,-0.004375,0.0146875
3.654,-0.00375,0.015
3.655,-0.003125,0.015
3.656,-0.0028125,0.015
3.657,-0.0021875,0.015
3.658,-0.001875,0.0146875
3.659,-0.00125,0.0146875
3.66,-0.0009375,0.0146875
3.661,-0.0003125,0.0146875
3.662,0,0.014375
3.663,0.0003125,0.014375
3.664,0.000625,0.014375
3.665,0.00125,0.0140625
3.666,0.0015625,0.0140625
3.667,0.001875,0.01375
3.668,0.0021875,0.0134375
3.669,0.0025,0.013125
3.67,0.0025,0.013125
3.671,0.003125,0.0125
3.672,0.003125,0.0125
3.673,0.0034375,0.011875
3.674,0.0034375,0.0115625
3.675,0.0034375,0.01125
3.676,0.00375,0.0109375
3.677,0.00375,0.0103125
3.678,0.00375,0.01
3.679,0.00375,0.0096875
3.68,0.00375,0.0090625
3.681,0.00375,0.00875
3.682,0.00375,0.0084375
3.683,0.00375,0.0078125
3.684,0.00375,0.0075
3.685,0.0034375,0.0071875
3.686,0.0034375,0.006875
3.687,0.0034375,0.00625
3.688,0.0034375,0.0059375
3.689,0.003125,0.005625
3.69,0.003125,0.0053125
3.691,0.003125,0.0046875
3.692,0.0028125,0.004375
3.693,0.0028125,0.0040625
3.694,0.0025,0.00375
3.695,0.0021875,0.0034375
3.696,0.0021875,0.003125
3.697,0.001875,0.0028125
3.698,0.001875,0.0025
3.699,0.001875,0.0021875
3.7,0.0015625,0.001875
3.701,0.0015625,0.001875
3.702,0.0015625,0.00125
3.703,0.00125,0.00125
3.704,0.00125,0.0009375
3.705,0.0009375,0.0009375
3.706,0.0009375,0.0009375
3.707,0.0009375,0.000625
3.708,0.0009375,0.000625
3.709,0.0009375,0.0003125
3.71,0.000625,0.0003125
3.711,0.000625,0.0003125
3.712,0.000625,0.0003125
3.713,0.000625,0.0003125
3.714,0.000625,0.0003125
3.715,0.0003125,0.0003125
3.716,0.0003125,0.0003125
3.717,0.0003125,0.0003125
3.718,0.0003125,0.0003125
3.719,0.0003125,0.0003125
3.72,0.0003125,0.0003125
3.721,0,0.0003125
3.722,0,0.0003125
3.723,0,0.0003125
3.724,0,0.0003125
3.725,0,0.0003125
3.726,0,0.0003125
3.727,0,0.000625
3.728,0,0.000625
3.729,-0.0003125,0.000625
3.73,-0.0003125,0.000625
3.731,-0.0003125,0.000625
3.732,-0.000625,0.000625
3.733,-0.000625,0.000625
3.734,-0.000625,0.000625
3.735,-0.0009375,0.000625
3.736,-0.00125,0.000625
3.737,-0.00125,0.000625
3.738,-0.0015625,0.000625
3.739,-0.001875,0.0003125
3.74,-0.001875,0.0003125
3.741,-0.0021875,0.0003125
3.742,-0.0025,0.0003125
3.743,-0.0025,0.0003125
3.744,-0.003125,0
3.745,-0.003125,0
3.746,-0.0034375,0
3.747,-0.00375,0
3.748,-0.0040625,0
3.749,-0.004375,-0.0003125
3.75,-0.0046875,-0.0003125
3.751,-0.005,-0.0003125
3.752,-0.0053125,-0.000625
3.753,-0.005625,-0.000625
3.754,-0.0059375,-0.000625
3.755,-0.00625,-0.000625
3.756,-0.0065625,-0.000625
3.757,-0.006875,-0.0009375
3.758,-0.006875,-0.0009375
3.759,-0.0071875,-0.0009375
3.76,-0.0078125,-0.0009375
3.761,-0.008125,-0.0009375
3.762,-0.008125,-0.0009375
3.763,-0.0084375,-0.0009375
3.764,-0.00875,-0.0009375
3.765,-0.00875,-0.0009375
3.766,-0.0090625,-0.0009375
3.767,-0.0090625,-0.000625
3.768,-0.009375,-0.000625
3.769,-0.009375,-0.000625
3.77,-0.009375,-0.000625
3.771,-0.0096875,-0.000625
3.772,-0.0096875,-0.0003125
3.773,-0.0096875,-0.0003125
3.774,-0.0096875,-0.0003125
3.775,-0.01,-0.0003125
3.776,-0.01,-0.0003125
3.777,-0.01,0
3.778,-0.01,0
3.779,-0.01,0
3.78,-0.0096875,0
3.781,-0.0096875,0
3.782,-0.0096875,0.0003125
3.783,-0.0096875,0.0003125
3.784,-0.009375,0.0003125
3.785,-0.009375,0.0003125
3.786,-0.009375,0.0003125
3.787,-0.0090625,0.000625
3.788,-0.0090625,0.000625
3.789,-0.0090625,0.000625
3.79,-0.00875,0.000625
3.791,-0.00875,0.000625
3.792,-0.0084375,0.000625
3.793,-0.0084375,0.0009375
3.794,-0.0084375,0.0009375
3.795,-0.008125,0.0009375
3.796,-0.008125,0.0009375
3.797,-0.0078125,0.000625
3.798,-0.0078125,0.000625
3.799,-0.0078125,0.0009375
3.8,-0.0075,0.0009375
3.801,-0.0075,0.0009375
3.802,-0.0071875,0.0009375
3.803,-0.0071875,0.0009375
3.804,-0.0071875,0.0009375
3.805,-0.006875,0.0009375
3.806,-0.006875,0.0009375
3.807,-0.006875,0.0009375
3.808,-0.0065625,0.0009375
3.809,-0.0065625,0.0009375
3.81,-0.0065625,0.0009375
3.811,-0.0065625,0.000625
3.812,-0.00625,0.000625
3.813,-0.00625,0.000625
3.814,-0.00625,0.000625
3.815,-0.00625,0.000625
3.816,-0.00625,0.000625
3.817,-0.00625,0.000625
3.818,-0.00625,0.000625
3.819,-0.0059375,0.000625
3.82,-0.0059375,0.000625
3.821,-0.0059375,0.000625
3.822,-0.0059375,0.0003125
3.823,-0.0059375,0.0003125
3.824,-0.0059375,0.0003125
3.825,-0.0059375,0.0003125
3.826,-0.005625,0.0003125
3.827,-0.005625,0
3.828,-0.005625,0
3.829,-0.005625,-0.0003125
3.83,-0.005625,-0.0003125
3.831,-0.0053125,-0.0003125
3.832,-0.0053125,-0.000625
3.833,-0.0053125,-0.000625
3.834,-0.0053125,-0.000625
3.835,-0.0053125,-0.0009375
3.836,-0.0053125,-0.0009375
3.837,-0.0053125,-0.00125
3.838,-0.005,-0.00125
3.839,-0.005,-0.0015625
3.84,-0.005,-0.001875
3.841,-0.005,-0.001875
3.842,-0.0046875,-0.0021875
3.843,-0.0046875,-0.0021875
3.844,-0.0046875,-0.0025
3.845,-0.004375,-0.0025
3.846,-0.004375,-0.0025
3.847,-0.0040625,-0.0028125
3.848,-0.0040625,-0.0028125
3.849,-0.00375,-0.003125
3.85,-0.00375,-0.003125
3.851,-0.00375,-0.003125
3.852,-0.0034375,-0.0034375
3.853,-0.0034375,-0.0034375
3.854,-0.003125,-0.0034375
3.855,-0.003125,-0.00375
3.856,-0.0028125,-0.00375
3.857,-0.0025,-0.00375
3.858,-0.0025,-0.00375
3.859,-0.0021875,-0.00375
3.86,-0.001875,-0.00375
3.861,-0.001875,-0.00375
3.862,-0.00125,-0.00375
3.863,-0.0009375,-0.00375
3.864,-0.0009375,-0.00375
3.865,-0.0003125,-0.00375
3.866,-0.0003125,-0.00375
3.867,0.0003125,-0.0034375
3.868,0.0003125,-0.0034375
3.869,0.000625,-0.003125
3.87,0.00125,-0.003125
3.871,0.00125,-0.0028125
3.872,0.0015625,-0.0028125
3.873,0.001875,-0.0025
3.874,0.0021875,-0.0025
3.875,0.0021875,-0.0025
3.876,0.0025,-0.0021875
3.877,0.0028125,-0.0021875
3.878,0.0028125,-0.001875
3.879,0.003125,-0.001875
3.88,0.0034375,-0.0015625
3.881,0.0034375,-0.0015625
3.882,0.00375,-0.00125
3.883,0.00375,-0.00125
3.884,0.0040625,-0.0009375
3.885,0.0040625,-0.0009375
3.886,0.0040625,-0.0009375
3.887,0.004375,-0.000625
3.888,0.004375,-0.000625
3.889,0.004375,-0.0003125
3.89,0.004375,-0.0003125
3.891,0.004375,-0.0003125
3.892,0.004375,-0.0003125
3.893,0.004375,-0.0003125
3.894,0.004375,-0.0003125
3.895,0.004375,-0.0003125
3.896,0.0040625,-0.0003125
3.897,0.0040625,-0.0003125
3.898,0.0040625,-0.0003125
3.899,0.00375,-0.0003125
3.9,0.00375,-0.0003125
3.901,0.00375,-0.0003125
3.902,0.0034375,-0.0003125
3.903,0.0034375,-0.000625
3.904,0.0034375,-0.000625
3.905,0.0034375,-0.000625
3.906,0.003125,-0.000625
3.907,0.003125,-0.000625
3.908,0.003125,-0.000625
3.909,0.003125,-0.0009375
3.91,0.003125,-0.0009375
3.911,0.003125,-0.0009375
3.912,0.003125,-0.0009375
3.913,0.0028125,-0.0009375
3.914,0.0028125,-0.0009375
3.915,0.0028125,-0.0009375
3.916,0.0028125,-0.0009375
3.917,0.0028125,-0.0009375
3.918,0.0028125,-0.0009375
3.919,0.003125,-0.0009375
3.92,0.003125,-0.0009375
3.921,0.003125,-0.0009375
3.922,0.003125,-0.0009375
3.923,0.003125,-0.0009375
3.924,0.003125,-0.0009375
3.925,0.003125,-0.0009375
3.926,0.0034375,-0.0009375
3.927,0.0034375,-0.000625
3.928,0.0034375,-0.000625
3.929,0.00375,-0.000625
3.93,0.00375,-0.000625
3.931,0.0040625,-0.000625
3.932,0.0040625,-0.000625
3.933,0.0040625,-0.000625
3.934,0.004375,-0.000625
3.935,0.004375,-0.000625
3.936,0.004375,-0.000625
3.937,0.0046875,-0.000625
3.938,0.0046875,-0.000625
3.939,0.005,-0.000625
3.94,0.005,-0.000625
3.941,0.005,-0.000625
3.942,0.0053125,-0.000625
3.943,0.0053125,-0.000625
3.944,0.005625,-0.000625
3.945,0.005625,-0.000625
3.946,0.005625,-0.000625
3.947,0.005625,-0.000625
3.948,0.005625,-0.000625
3.949,0.0059375,-0.000625
3.95,0.0059375,-0.000625
3.951,0.005625,-0.000625
3.952,0.005625,-0.000625
3.953,0.005625,-0.000625
3.954,0.005625,-0.000625
3.955,0.005625,-0.000625
3.956,0.005625,-0.000625
3.957,0.005625,-0.000625
3.958,0.005625,-0.0009375
3.959,0.0053125,-0.0009375
3.96,0.0053125,-0.0009375
3.961,0.0053125,-0.0009375
3.962,0.005,-0.0009375
3.963,0.005,-0.00125
3.964,0.005,-0.00125
3.965,0.0046875,-0.00125
3.966,0.0046875,-0.00125
3.967,0.004375,-0.00125
3.968,0.004375,-0.00125
3.969,0.0040625,-0.00125
3.97,0.0040625,-0.0015625
3.971,0.00375,-0.0015625
3.972,0.00375,-0.0015625
3.973,0.00375,-0.0015625
3.974,0.0034375,-0.0015625
3.975,0.0034375,-0.0015625
3.976,0.003125,-0.0015625
3.977,0.003125,-0.0015625
3.978,0.003125,-0.0015625
3.979,0.0028125,-0.0015625
3.98,0.0028125,-0.0015625
3.981,0.0028125,-0.0015625
3.982,0.0025,-0.001875
3.983,0.0025,-0.001875
3.984,0.0025,-0.001875
3.985,0.0025,-0.001875
3.986,0.0025,-0.0015625
3.987,0.0025,-0.0015625
3.988,0.0025,-0.0015625
3.989,0.0025,-0.0015625
3.99,0.0025,-0.001875
3.991,0.0025,-0.001875
3.992,0.0028125,-0.001875
3.993,0.0028125,-0.001875
3.994,0.0028125,-0.001875
3.995,0.0028125,-0.001875
3.996,0.0028125,-0.001875
3.997,0.003125,-0.001875
3.998,0.003125,-0.001875
3.999,0.0034375,-0.001875
4,0.0034375,-0.001875
4.001,0.0034375,-0.001875
4.002,0.00375,-0.001875
4.003,0.00375,-0.001875
4.004,0.0040625,-0.001875
4.005,0.0040625,-0.001875
4.006,0.004375,-0.001875
4.007,0.004375,-0.001875
4.008,0.0046875,-0.001875
4.009,0.0046875,-0.001875
4.01,0.005,-0.001875
4.011,0.005,-0.0015625
4.012,0.005,-0.0015625
4.013,0.0053125,-0.0015625
4.014,0.0053125,-0.0015625
4.015,0.0053125,-0.0015625
4.016,0.005625,-0.0015625
4.017,0.005625,-0.0015625
4.018,0.005625,-0.0015625
4.019,0.005625,-0.00125
4.02,0.005625,-0.00125
4.021,0.005625,-0.00125
4.022,0.005625,-0.00125
4.023,0.005625,-0.00125
4.024,0.005625,-0.00125
4.025,0.005625,-0.0009375
4.026,0.005625,-0.0009375
4.027,0.005625,-0.0009375
4.028,0.005625,-0.000625
4.029,0.005625,-0.000625
4.03,0.005625,-0.000625
4.031,0.0053125,-0.000625
4.032,0.0053125,-0.0003125
4.033,0.0053125,-0.0003125
4.034,0.005,-0.0003125
4.035,0.005,-0.0003125
4.036,0.005,-0.0003125
4.037,0.005,0
4.038,0.0046875,0
4.039,0.0046875,0
4.04,0.0046875,0
4.041,0.004375,0
4.042,0.004375,0
4.043,0.004375,0
4.044,0.004375,0
4.045,0.0040625,0.0003125
4.046,0.0040625,0.0003125
4.047,0.0040625,0.0003125
4.048,0.0040625,0.0003125
4.049,0.00375,0.0003125
4.05,0.00375,0.0003125
4.051,0.00375,0.0003125
4.052,0.00375,0.000625
4.053,0.00375,0.000625
4.054,0.0034375,0.000625
4.055,0.0034375,0.000625
4.056,0.0034375,0.000625
4.057,0.0034375,0.000625
4.058,0.0034375,0.000625
4.059,0.0034375,0.000625
4.06,0.0034375,0.0009375
4.061,0.0034375,0.0009375
4.062,0.0034375,0.0009375
4.063,0.0034375,0.0009375
4.064,0.0034375,0.0009375
4.065,0.0034375,0.00125
4.066,0.0034375,0.00125
4.067,0.0034375,0.00125
4.068,0.0034375,0.00125
4.069,0.0034375,0.00125
4.07,0.003125,0.0015625
4.071,0.003125,0.0015625
4.072,0.003125,0.0015625
4.073,0.003125,0.001875
4.074,0.003125,0.001875
4.075,0.0034375,0.001875
4.076,0.0034375,0.001875
4.077,0.0034375,0.0021875
4.078,0.0034375,0.0021875
4.079,0.0034375,0.0021875
4.08,0.0034375,0.0021875
4.081,0.0034375,0.0021875
4.082,0.0034375,0.0025
4.083,0.0034375,0.0025
4.084,0.00375,0.0025
4.085,0.00375,0.0028125
4.086,0.00375,0.0028125
4.087,0.00375,0.003125
4.088,0.0040625,0.003125
4.089,0.0040625,0.003125
4.09,0.0040625,0.003125
4.091,0.0040625,0.0034375
4.092,0.0040625,0.0034375
4.093,0.0040625,0.00375
4.094,0.0040625,0.00375
4.095,0.0040625,0.00375
4.096,0.0040625,0.00375
4.097,0.0040625,0.0040625
4.098,0.0040625,0.0040625
4.099,0.0040625,0.004375
4.1,0.0040625,0.004375
4.101,0.0040625,0.004375
4.102,0.0040625,0.0046875
4.103,0.0040625,0.0046875
4.104,0.0040625,0.0046875
4.105,0.00375,0.0046875
4.106,0.00375,0.005
4.107,0.00375,0.005
4.108,0.0034375,0.005
4.109,0.003125,0.0053125
4.11,0.003125,0.0053125
4.111,0.003125,0.0053125
4.112,0.0028125,0.0053125
4.113,0.0025,0.0053125
4.114,0.0025,0.0053125
4.115,0.001875,0.0053125
4.116,0.001875,0.0053125
4.117,0.0015625,0.0053125
4.118,0.00125,0.0053125
4.119,0.00125,0.0053125
4.12,0.000625,0.0053125
4.121,0.000625,0.0053125
4.122,0.0003125,0.0053125
4.123,0,0.0053125
4.124,0,0.005
4.125,-0.0003125,0.005
4.126,-0.000625,0.0046875
4.127,-0.000625,0.0046875
4.128,-0.0009375,0.0046875
4.129,-0.0009375,0.004375
4.13,-0.00125,0.004375
4.131,-0.00125,0.0040625
4.132,-0.0015625,0.0040625
4.133,-0.0015625,0.00375
4.134,-0.0015625,0.0034375
4.135,-0.001875,0.0034375
4.136,-0.001875,0.0034375
4.137,-0.001875,0.003125
4.138,-0.0021875,0.0028125
4.139,-0.0021875,0.0028125
4.14,-0.0021875,0.0025
4.141,-0.0021875,0.0021875
4.142,-0.0021875,0.0021875
4.143,-0.0021875,0.001875
4.144,-0.0021875,0.0015625
4.145,-0.0021875,0.0015625
4.146,-0.0021875,0.00125
4.147,-0.001875,0.00125
4.148,-0.001875,0.0009375
4.149,-0.001875,0.0009375
4.15,-0.001875,0.000625
4.151,-0.001875,0.000625
4.152,-0.001875,0.0003125
4.153,-0.001875,0.0003125
4.154,-0.0015625,0
4.155,-0.0015625,0
4.156,-0.0015625,0
4.157,-0.0015625,-0.0003125
4.158,-0.0015625,-0.0003125
4.159,-0.00125,-0.000625
4.16,-0.00125,-0.000625
4.161,-0.0009375,-0.000625
4.162,-0.0009375,-0.0009375
4.163,-0.0009375,-0.0009375
4.164,-0.000625,-0.0009375
4.165,-0.000625,-0.00125
4.166,-0.0003125,-0.00125
4.167,-0.0003125,-0.00125
4.168,0,-0.00125
4.169,0,-0.00125
4.17,0.0003125,-0.00125
4.171,0.0003125,-0.00125
4.172,0.000625,-0.00125
4.173,0.000625,-0.00125
4.174,0.000625,-0.00125
4.175,0.0009375,-0.0009375
4.176,0.00125,-0.0009375
4.177,0.00125,-0.000625
4.178,0.00125,-0.000625
4.179,0.0015625,-0.000625
4.18,0.0015625,-0.0003125
4.181,0.001875,0
4.182,0.001875,0.0003125
4.183,0.0021875,0.000625
4.184,0.0021875,0.0009375
4.185,0.0021875,0.00125
4.186,0.0025,0.0015625
4.187,0.0025,0.0021875
4.188,0.0028125,0.0025
4.189,0.0028125,0.003125
4.19,0.0028125,0.0034375
4.191,0.0028125,0.004375
4.192,0.0028125,0.0046875
4.193,0.0028125,0.005625
4.194,0.0028125,0.0059375
4.195,0.0028125,0.006875
4.196,0.0028125,0.0071875
4.197,0.0028125,0.008125
4.198,0.0028125,0.0084375
4.199,0.0025,0.009375
4.2,0.0025,0.01
4.201,0.0025,0.010625
4.202,0.0025,0.0115625
4.203,0.0025,0.0125
4.204,0.0025,0.013125
4.205,0.0021875,0.01375
4.206,0.0021875,0.0146875
4.207,0.0021875,0.015625
4.208,0.0021875,0.01625
4.209,0.001875,0.016875
4.21,0.001875,0.0175
4.211,0.0015625,0.0184375
4.212,0.0015625,0.019375
4.213,0.0015625,0.0196875
4.214,0.00125,0.020625
4.215,0.00125,0.02125
4.216,0.0009375,0.0221875
4.217,0.0009375,0.0228125
4.218,0.0009375,0.023125
4.219,0.000625,0.02375
4.22,0.000625,0.0240625
4.221,0.000625,0.025
4.222,0.000625,0.0253125
4.223,0.000625,0.025625
4.224,0.0003125,0.02625
4.225,0.0003125,0.0265625
4.226,0.0003125,0.026875
4.227,0.0003125,0.0271875
4.228,0.0003125,0.0278125
4.229,0.0003125,0.028125
4.23,0.0003125,0.028125
4.231,0.000625,0.0284375
4.232,0.000625,0.02875
4.233,0.000625,0.0290625
4.234,0.000625,0.0290625
4.235,0.000625,0.029375
4.236,0.000625,0.029375
4.237,0.000625,0.029375
4.238,0.000625,0.0296875
4.239,0.000625,0.0296875
4.24,0.000625,0.0296875
4.241,0.000625,0.0296875
4.242,0.0009375,0.029375
4.243,0.0009375,0.029375
4.244,0.0009375,0.029375
4.245,0.0009375,0.029375
4.246,0.00125,0.029375
4.247,0.00125,0.029375
4.248,0.00125,0.029375
4.249,0.0015625,0.0290625
4.25,0.0015625,0.0290625
4.251,0.0015625,0.0290625
4.252,0.0015625,0.02875
4.253,0.0015625,0.02875
4.254,0.0015625,0.02875
4.255,0.001875,0.0284375
4.256,0.001875,0.0284375
4.257,0.001875,0.028125
4.258,0.001875,0.028125
4.259,0.0015625,0.0278125
4.26,0.0015625,0.0275
4.261,0.0015625,0.0275
4.262,0.0015625,0.0271875
4.263,0.0015625,0.026875
4.264,0.0015625,0.026875
4.265,0.0015625,0.026875
4.266,0.0015625,0.0265625
4.267,0.0015625,0.02625
4.268,0.0015625,0.02625
4.269,0.00125,0.0259375
4.27,0.00125,0.0259375
4.271,0.0009375,0.025625
4.272,0.0009375,0.0253125
4.273,0.0009375,0.0253125
4.274,0.000625,0.0253125
4.275,0.000625,0.025
4.276,0.0003125,0.0246875
4.277,0.0003125,0.0246875
4.278,0.0003125,0.024375
4.279,0,0.0240625
4.28,0,0.0240625
4.281,-0.0003125,0.02375
4.282,-0.0003125,0.02375
4.283,-0.0003125,0.0234375
4.284,-0.000625,0.0234375
4.285,-0.000625,0.023125
4.286,-0.0009375,0.023125
4.287,-0.0009375,0.0228125
4.288,-0.00125,0.0228125
4.289,-0.00125,0.0228125
4.29,-0.00125,0.0225
4.291,-0.0015625,0.0225
4.292,-0.0015625,0.0221875
4.293,-0.0015625,0.0221875
4.294,-0.0015625,0.0221875
4.295,-0.0015625,0.021875
4.296,-0.0015625,0.021875
4.297,-0.0015625,0.0215625
4.298,-0.0015625,0.0215625
4.299,-0.0015625,0.02125
4.3,-0.0015625,0.02125
4.301,-0.00125,0.02125
4.302,-0.00125,0.0209375
4.303,-0.00125,0.0209375
4.304,-0.0009375,0.020625
4.305,-0.0009375,0.020625
4.306,-0.000625,0.020625
4.307,-0.0003125,0.020625
4.308,0,0.020625
4.309,0.0003125,0.0203125
4.31,0.000625,0.0203125
4.311,0.0009375,0.0203125
4.312,0.00125,0.0203125
4.313,0.0015625,0.0203125
4.314,0.001875,0.0203125
4.315,0.0021875,0.02
4.316,0.0025,0.02
4.317,0.0028125,0.02
4.318,0.003125,0.02
4.319,0.00375,0.02
4.32,0.0040625,0.02
4.321,0.004375,0.02
4.322,0.0046875,0.0196875
4.323,0.0053125,0.0196875
4.324,0.005625,0.0196875
4.325,0.0059375,0.0196875
4.326,0.00625,0.0196875
4.327,0.0065625,0.0196875
4.328,0.006875,0.0196875
4.329,0.0071875,0.019375
4.33,0.0078125,0.019375
4.331,0.0078125,0.019375
4.332,0.008125,0.019375
4.333,0.0084375,0.019375
4.334,0.0084375,0.019375
4.335,0.00875,0.019375
4.336,0.0090625,0.0190625
4.337,0.009375,0.0190625
4.338,0.009375,0.0190625
4.339,0.009375,0.0190625
4.34,0.0096875,0.0190625
4.341,0.0096875,0.01875
4.342,0.0096875,0.01875
4.343,0.01,0.01875
4.344,0.01,0.01875
4.345,0.01,0.0184375
4.346,0.01,0.0184375
4.347,0.0096875,0.0184375
4.348,0.0096875,0.018125
4.349,0.0096875,0.018125
4.35,0.0096875,0.018125
4.351,0.0096875,0.018125
4.352,0.0096875,0.0178125
4.353,0.009375,0.0178125
4.354,0.009375,0.0178125
4.355,0.009375,0.0175
4.356,0.0090625,0.0175
4.357,0.0090625,0.0175
4.358,0.00875,0.0171875
4.359,0.00875,0.0171875
4.36,0.00875,0.0171875
4.361,0.0084375,0.016875
4.362,0.0084375,0.016875
4.363,0.008125,0.016875
4.364,0.008125,0.0165625
4.365,0.008125,0.0165625
4.366,0.0078125,0.0165625
4.367,0.0075,0.01625
4.368,0.0075,0.01625
4.369,0.0071875,0.01625
4.37,0.0071875,0.0159375
4.371,0.0071875,0.0159375
4.372,0.006875,0.0159375
4.373,0.006875,0.015625
4.374,0.0065625,0.015625
4.375,0.0065625,0.015625
4.376,0.00625,0.0153125
4.377,0.00625,0.0153125
4.378,0.0059375,0.0153125
4.379,0.0059375,0.015
4.38,0.005625,0.015
4.381,0.005625,0.015
4.382,0.005625,0.0146875
4.383,0.0053125,0.0146875
4.384,0.0053125,0.0146875
4.385,0.005,0.014375
4.386,0.005,0.014375
4.387,0.0046875,0.014375
4.388,0.0046875,0.0140625
4.389,0.004375,0.0140625
4.39,0.004375,0.0140625
4.391,0.0040625,0.0140625
4.392,0.00375,0.01375
4.393,0.00375,0.01375
4.394,0.0034375,0.01375
4.395,0.003125,0.0134375
4.396,0.003125,0.0134375
4.397,0.0028125,0.013125
4.398,0.0028125,0.013125
4.399,0.0025,0.013125
4.4,0.0025,0.013125
4.401,0.0025,0.0128125
4.402,0.0021875,0.0128125
4.403,0.0021875,0.0128125
4.404,0.001875,0.0125
4.405,0.001875,0.0125
4.406,0.001875,0.0125
4.407,0.001875,0.0125
4.408,0.001875,0.0125
4.409,0.001875,0.0125
4.41,0.0015625,0.0125
4.411,0.0015625,0.0121875
4.412,0.0015625,0.0121875
4.413,0.0015625,0.0121875
4.414,0.0015625,0.0121875
4.415,0.0015625,0.0125
4.416,0.0015625,0.0125
4.417,0.0015625,0.0125
4.418,0.001875,0.0125
4.419,0.001875,0.0125
4.42,0.001875,0.0125
4.421,0.001875,0.0125
4.422,0.001875,0.0125
4.423,0.001875,0.0125
4.424,0.0021875,0.0125
4.425,0.0021875,0.0128125
4.426,0.0025,0.0128125
4.427,0.0025,0.0128125
4.428,0.0025,0.0128125
4.429,0.0028125,0.0128125
4.43,0.0028125,0.0128125
4.431,0.0028125,0.013125
4.432,0.003125,0.013125
4.433,0.003125,0.013125
4.434,0.0034375,0.013125
4.435,0.0034375,0.013125
4.436,0.00375,0.013125
4.437,0.00375,0.013125
4.438,0.0040625,0.0134375
4.439,0.004375,0.0134375
4.44,0.004375,0.0134375
4.441,0.0046875,0.0134375
4.442,0.0046875,0.0134375
4.443,0.005,0.0134375
4.444,0.005,0.0134375
4.445,0.0053125,0.0134375
4.446,0.0053125,0.0134375
4.447,0.005625,0.0134375
4.448,0.005625,0.0134375
4.449,0.0059375,0.0134375
4.45,0.0059375,0.0134375
4.451,0.0059375,0.0134375
4.452,0.00625,0.01375
4.453,0.00625,0.01375
4.454,0.00625,0.01375
4.455,0.00625,0.01375
4.456,0.0065625,0.01375
4.457,0.0065625,0.01375
4.458,0.0065625,0.01375
4.459,0.0065625,0.01375
4.46,0.0065625,0.01375
4.461,0.006875,0.01375
4.462,0.006875,0.0140625
4.463,0.006875,0.0140625
4.464,0.006875,0.0140625
4.465,0.006875,0.014375
4.466,0.006875,0.014375
4.467,0.0071875,0.014375
4.468,0.0071875,0.0146875
4.469,0.0071875,0.0146875
4.47,0.0071875,0.015
4.471,0.0071875,0.0153125
4.472,0.0071875,0.0153125
4.473,0.0071875,0.015625
4.474,0.0071875,0.0159375
4.475,0.0071875,0.0159375
4.476,0.0075,0.01625
4.477,0.0075,0.01625
4.478,0.0075,0.0165625
4.479,0.0078125,0.016875
4.48,0.0078125,0.016875
4.481,0.0078125,0.0171875
4.482,0.008125,0.0178125
4.483,0.008125,0.0178125
4.484,0.0084375,0.018125
4.485,0.00875,0.0184375
4.486,0.0090625,0.01875
4.487,0.0090625,0.0190625
4.488,0.009375,0.019375
4.489,0.0096875,0.0196875
4.49,0.0096875,0.02
4.491,0.0096875,0.0203125
4.492,0.01,0.020625
4.493,0.0103125,0.0209375
4.494,0.0103125,0.0209375
4.495,0.010625,0.0215625
4.496,0.0109375,0.0215625
4.497,0.0109375,0.021875
4.498,0.01125,0.021875
4.499,0.01125,0.0221875
4.5,0.0115625,0.0225
4.501,0.0115625,0.0225
4.502,0.011875,0.0228125
4.503,0.011875,0.0228125
4.504,0.011875,0.023125
4.505,0.0121875,0.023125
4.506,0.0121875,0.023125
4.507,0.0121875,0.0234375
4.508,0.0125,0.0234375
4.509,0.0125,0.0234375
4.51,0.0125,0.0234375
4.511,0.0125,0.0234375
4.512,0.0125,0.0234375
4.513,0.0125,0.0234375
4.514,0.0125,0.0234375
4.515,0.0125,0.0234375
4.516,0.0125,0.023125
4.517,0.0121875,0.023125
4.518,0.0121875,0.0228125
4.519,0.0121875,0.0225
4.52,0.0121875,0.0225
4.521,0.011875,0.0221875
4.522,0.011875,0.021875
4.523,0.011875,0.021875
4.524,0.0115625,0.02125
4.525,0.0115625,0.02125
4.526,0.01125,0.0209375
4.527,0.01125,0.020625
4.528,0.01125,0.0203125
4.529,0.0109375,0.02
4.53,0.0109375,0.0196875
4.531,0.010625,0.019375
4.532,0.010625,0.0190625
4.533,0.01,0.01875
4.534,0.01,0.0184375
4.535,0.0096875,0.0178125
4.536,0.009375,0.0178125
4.537,0.009375,0.0171875
4.538,0.0090625,0.016875
4.539,0.00875,0.0165625
4.54,0.00875,0.01625
4.541,0.0084375,0.0159375
4.542,0.008125,0.015625
4.543,0.008125,0.0153125
4.544,0.0078125,0.015
4.545,0.0075,0.0146875
4.546,0.0075,0.014375
4.547,0.0071875,0.014375
4.548,0.006875,0.0140625
4.549,0.006875,0.01375
4.55,0.006875,0.01375
4.551,0.0065625,0.013125
4.552,0.00625,0.013125
4.553,0.00625,0.013125
4.554,0.0059375,0.0128125
4.555,0.0059375,0.0125
4.556,0.0059375,0.0125
4.557,0.005625,0.0121875
4.558,0.005625,0.0121875
4.559,0.0053125,0.011875
4.56,0.0053125,0.011875
4.561,0.0053125,0.011875
4.562,0.0053125,0.0115625
4.563,0.0053125,0.0115625
4.564,0.0053125,0.0115625
4.565,0.0053125,0.0115625
4.566,0.0053125,0.01125
4.567,0.005625,0.01125
4.568,0.005625,0.01125
4.569,0.005625,0.01125
4.57,0.005625,0.01125
4.571,0.005625,0.01125
4.572,0.0059375,0.01125
4.573,0.0059375,0.01125
4.574,0.00625,0.0109375
4.575,0.00625,0.0109375
4.576,0.00625,0.0109375
4.577,0.0065625,0.0109375
4.578,0.0065625,0.0109375
4.579,0.006875,0.0109375
4.58,0.006875,0.0109375
4.581,0.0071875,0.010625
4.582,0.0075,0.010625
4.583,0.0075,0.010625
4.584,0.0078125,0.010625
4.585,0.008125,0.010625
4.586,0.008125,0.0109375
4.587,0.00875,0.0109375
4.588,0.00875,0.0109375
4.589,0.0090625,0.0109375
4.59,0.009375,0.0109375
4.591,0.009375,0.0109375
4.592,0.0096875,0.0109375
4.593,0.01,0.0109375
4.594,0.01,0.0109375
4.595,0.0103125,0.0109375
4.596,0.010625,0.0109375
4.597,0.010625,0.0109375
4.598,0.01125,0.0109375
4.599,0.01125,0.0109375
4.6,0.0115625,0.0109375
4.601,0.0115625,0.0109375
4.602,0.011875,0.0109375
4.603,0.0125,0.0109375
4.604,0.0125,0.01125
4.605,0.0128125,0.01125
4.606,0.013125,0.01125
4.607,0.0134375,0.01125
4.608,0.01375,0.01125
4.609,0.0140625,0.01125
4.61,0.014375,0.0115625
4.611,0.0146875,0.0115625
4.612,0.015,0.0115625
4.613,0.015,0.0115625
4.614,0.015625,0.0115625
4.615,0.0159375,0.0115625
4.616,0.0159375,0.0115625
4.617,0.01625,0.0115625
4.618,0.0165625,0.0115625
4.619,0.016875,0.0115625
4.62,0.016875,0.011875
4.621,0.0175,0.011875
4.622,0.0178125,0.011875
4.623,0.0178125,0.011875
4.624,0.0184375,0.011875
4.625,0.0184375,0.011875
4.626,0.01875,0.011875
4.627,0.0190625,0.011875
4.628,0.0190625,0.011875
4.629,0.019375,0.0121875
4.63,0.0196875,0.0121875
4.631,0.02,0.0121875
4.632,0.02,0.0121875
4.633,0.0203125,0.011875
4.634,0.0203125,0.011875
4.635,0.0203125,0.011875
4.636,0.020625,0.011875
4.637,0.020625,0.011875
4.638,0.020625,0.011875
4.639,0.020625,0.011875
4.64,0.020625,0.011875
4.641,0.0203125,0.0115625
4.642,0.0203125,0.0115625
4.643,0.0203125,0.0115625
4.644,0.02,0.0115625
4.645,0.02,0.0115625
4.646,0.02,0.01125
4.647,0.0196875,0.01125
4.648,0.019375,0.01125
4.649,0.0190625,0.01125
4.65,0.0190625,0.0109375
4.651,0.0184375,0.0109375
4.652,0.0184375,0.010625
4.653,0.0178125,0.010625
4.654,0.0175,0.010625
4.655,0.0171875,0.0103125
4.656,0.0165625,0.0103125
4.657,0.01625,0.01
4.658,0.0159375,0.01
4.659,0.0153125,0.01
4.66,0.0146875,0.0096875
4.661,0.014375,0.0096875
4.662,0.01375,0.009375
4.663,0.0134375,0.009375
4.664,0.013125,0.009375
4.665,0.0125,0.0090625
4.666,0.011875,0.0090625
4.667,0.01125,0.0090625
4.668,0.0109375,0.0090625
4.669,0.0103125,0.0090625
4.67,0.0096875,0.0090625
4.671,0.009375,0.00875
4.672,0.0090625,0.00875
4.673,0.0084375,0.00875
4.674,0.008125,0.00875
4.675,0.0075,0.00875
4.676,0.0071875,0.00875
4.677,0.0065625,0.00875
4.678,0.00625,0.00875
4.679,0.0059375,0.00875
4.68,0.0053125,0.0090625
4.681,0.005,0.0090625
4.682,0.0046875,0.0090625
4.683,0.004375,0.0090625
4.684,0.0040625,0.0090625
4.685,0.00375,0.0090625
4.686,0.0034375,0.0090625
4.687,0.003125,0.0090625
4.688,0.0028125,0.009375
4.689,0.0028125,0.009375
4.69,0.0025,0.009375
4.691,0.0021875,0.009375
4.692,0.001875,0.009375
4.693,0.0015625,0.0096875
4.694,0.0015625,0.0096875
4.695,0.00125,0.0096875
4.696,0.0009375,0.0096875
4.697,0.0009375,0.0096875
4.698,0.000625,0.0096875
4.699,0.0003125,0.0096875
4.7,0.0003125,0.0096875
4.701,0.0003125,0.0096875
4.702,0,0.0096875
4.703,0,0.0096875
4.704,0,0.0096875
4.705,0,0.0096875
4.706,-0.0003125,0.01
4.707,-0.0003125,0.01
4.708,-0.0003125,0.01
4.709,-0.0003125,0.01
4.71,-0.0003125,0.01
4.711,-0.0003125,0.0103125
4.712,-0.0003125,0.0103125
4.713,-0.0003125,0.0103125
4.714,-0.0003125,0.0103125
4.715,-0.0003125,0.0103125
4.716,-0.0003125,0.010625
4.717,-0.0003125,0.010625
4.718,-0.0003125,0.010625
4.719,-0.0003125,0.010625
4.72,-0.0003125,0.010625
