Interval=,0.001 s,
ExcelDateTime=,4.54E+04,11:05.1
TimeFormat=,StartOfBlock,
DateFormat=,,
ChannelTitle=,Channel 3,Channel 4
Range=,10.000 mV,10.000 mV
0,0,0
0.001,0,0
0.002,-0.0003125,0
0.003,-0.0003125,0
0.004,-0.0003125,0
0.005,-0.000625,0
0.006,-0.00125,0
0.007,-0.001875,0
0.008,-0.003125,0
0.009,-0.004375,0
0.01,-0.0065625,0
0.011,-0.00875,0
0.012,-0.0115625,0
0.013,-0.0146875,0.0003125
0.014,-0.0184375,0.0003125
0.015,-0.0225,0.0003125
0.016,-0.026875,0.000625
0.017,-0.0315625,0.000625
0.018,-0.03625,0.0003125
0.019,-0.04125,0.0003125
0.02,-0.0459375,0.0003125
0.021,-0.050625,-0.0003125
0.022,-0.0553125,-0.000625
0.023,-0.059375,-0.0015625
0.024,-0.06375,-0.001875
0.025,-0.0675,-0.0028125
0.026,-0.07125,-0.00375
0.027,-0.075,-0.005
0.028,-0.0784375,-0.00625
0.029,-0.081875,-0.0075
0.03,-0.085625,-0.0090625
0.031,-0.089375,-0.010625
0.032,-0.093125,-0.0121875
0.033,-0.0975,-0.01375
0.034,-0.1015625,-0.0153125
0.035,-0.10625,-0.016875
0.036,-0.1103125,-0.01875
0.037,-0.114375,-0.0203125
0.038,-0.1184375,-0.0225
0.039,-0.1221875,-0.0240625
0.04,-0.125,-0.02625
0.041,-0.1275,-0.028125
0.042,-0.1290625,-0.0303125
0.043,-0.13,-0.0325
0.044,-0.1303125,-0.035
0.045,-0.129375,-0.0375
0.046,-0.128125,-0.04
0.047,-0.1265625,-0.0425
0.048,-0.1240625,-0.045
0.049,-0.1215625,-0.0478125
0.05,-0.1190625,-0.0503125
0.051,-0.1165625,-0.0525
0.052,-0.1146875,-0.0546875
0.053,-0.1128125,-0.056875
0.054,-0.11125,-0.0590625
0.055,-0.1103125,-0.0603125
0.056,-0.1096875,-0.0621875
0.057,-0.1090625,-0.0634375
0.058,-0.1090625,-0.0646875
0.059,-0.10875,-0.0659375
0.06,-0.1084375,-0.0671875
0.061,-0.1078125,-0.0678125
0.062,-0.106875,-0.0690625
0.063,-0.105625,-0.07
0.064,-0.10375,-0.070625
0.065,-0.1015625,-0.071875
0.066,-0.09875,-0.0725
0.067,-0.095625,-0.0734375
0.068,-0.0925,-0.074375
0.069,-0.0890625,-0.075
0.07,-0.085625,-0.0759375
0.071,-0.0825,-0.076875
0.072,-0.0796875,-0.0775
0.073,-0.076875,-0.0778125
0.074,-0.0746875,-0.078125
0.075,-0.073125,-0.0784375
0.076,-0.071875,-0.07875
0.077,-0.070625,-0.07875
0.078,-0.07,-0.07875
0.079,-0.0690625,-0.07875
0.08,-0.06875,-0.0784375
0.081,-0.0678125,-0.0784375
0.082,-0.0671875,-0.078125
0.083,-0.0659375,-0.078125
0.084,-0.064375,-0.078125
0.085,-0.0625,-0.0778125
0.086,-0.0603125,-0.0778125
0.087,-0.058125,-0.0778125
0.088,-0.055625,-0.0778125
0.089,-0.053125,-0.0778125
0.09,-0.050625,-0.0778125
0.091,-0.0484375,-0.0778125
0.092,-0.04625,-0.0778125
0.093,-0.044375,-0.0778125
0.094,-0.043125,-0.0771875
0.095,-0.0421875,-0.0771875
0.096,-0.0415625,-0.0765625
0.097,-0.04125,-0.07625
0.098,-0.04125,-0.0753125
0.099,-0.0415625,-0.075
0.1,-0.0421875,-0.0740625
0.101,-0.0425,-0.07375
0.102,-0.043125,-0.0728125
0.103,-0.04375,-0.071875
0.104,-0.0440625,-0.0715625
0.105,-0.044375,-0.070625
0.106,-0.0446875,-0.07
0.107,-0.045,-0.069375
0.108,-0.045,-0.06875
0.109,-0.0453125,-0.0684375
0.11,-0.0453125,-0.0675
0.111,-0.045625,-0.066875
0.112,-0.0459375,-0.06625
0.113,-0.04625,-0.0659375
0.114,-0.0471875,-0.0653125
0.115,-0.0478125,-0.0646875
0.116,-0.04875,-0.064375
0.117,-0.0496875,-0.0634375
0.118,-0.0509375,-0.063125
0.119,-0.0521875,-0.0621875
0.12,-0.053125,-0.061875
0.121,-0.0540625,-0.0609375
0.122,-0.055,-0.060625
0.123,-0.0559375,-0.06
0.124,-0.05625,-0.0596875
0.125,-0.0565625,-0.059375
0.126,-0.056875,-0.05875
0.127,-0.056875,-0.05875
0.128,-0.056875,-0.0584375
0.129,-0.056875,-0.058125
0.13,-0.0565625,-0.0578125
0.131,-0.0565625,-0.0578125
0.132,-0.05625,-0.0575
0.133,-0.0559375,-0.0571875
0.134,-0.0559375,-0.0571875
0.135,-0.055625,-0.056875
0.136,-0.0553125,-0.0565625
0.137,-0.0553125,-0.05625
0.138,-0.055,-0.0559375
0.139,-0.054375,-0.055625
0.14,-0.054375,-0.0553125
0.141,-0.05375,-0.0546875
0.142,-0.0534375,-0.0546875
0.143,-0.0525,-0.0540625
0.144,-0.0515625,-0.0540625
0.145,-0.0509375,-0.0534375
0.146,-0.05,-0.0534375
0.147,-0.0490625,-0.053125
0.148,-0.048125,-0.0525
0.149,-0.0471875,-0.0525
0.15,-0.0465625,-0.051875
0.151,-0.045625,-0.051875
0.152,-0.045,-0.05125
0.153,-0.044375,-0.0509375
0.154,-0.0440625,-0.050625
0.155,-0.04375,-0.05
0.156,-0.0434375,-0.0496875
0.157,-0.043125,-0.049375
0.158,-0.043125,-0.0484375
0.159,-0.043125,-0.048125
0.16,-0.0428125,-0.0478125
0.161,-0.0428125,-0.0471875
0.162,-0.0421875,-0.0465625
0.163,-0.0421875,-0.04625
0.164,-0.0415625,-0.0459375
0.165,-0.04125,-0.0453125
0.166,-0.040625,-0.0453125
0.167,-0.0403125,-0.0446875
0.168,-0.0396875,-0.044375
0.169,-0.039375,-0.044375
0.17,-0.03875,-0.0440625
0.171,-0.03875,-0.04375
0.172,-0.0384375,-0.0434375
0.173,-0.0384375,-0.043125
0.174,-0.03875,-0.0428125
0.175,-0.03875,-0.0425
0.176,-0.0390625,-0.0421875
0.177,-0.039375,-0.0415625
0.178,-0.0396875,-0.04125
0.179,-0.04,-0.0409375
0.18,-0.0403125,-0.0403125
0.181,-0.040625,-0.04
0.182,-0.040625,-0.039375
0.183,-0.040625,-0.0390625
0.184,-0.040625,-0.03875
0.185,-0.040625,-0.0384375
0.186,-0.040625,-0.0378125
0.187,-0.04,-0.0375
0.188,-0.04,-0.0371875
0.189,-0.0396875,-0.036875
0.19,-0.0396875,-0.0365625
0.191,-0.039375,-0.03625
0.192,-0.039375,-0.0359375
0.193,-0.039375,-0.0353125
0.194,-0.0396875,-0.035
0.195,-0.04,-0.034375
0.196,-0.04,-0.0340625
0.197,-0.040625,-0.03375
0.198,-0.0409375,-0.033125
0.199,-0.0409375,-0.0325
0.2,-0.04125,-0.031875
0.201,-0.04125,-0.0315625
0.202,-0.04125,-0.03125
0.203,-0.04125,-0.030625
0.204,-0.04125,-0.0303125
0.205,-0.0409375,-0.03
0.206,-0.0403125,-0.029375
0.207,-0.04,-0.029375
0.208,-0.0396875,-0.0290625
0.209,-0.0390625,-0.02875
0.21,-0.03875,-0.0284375
0.211,-0.0384375,-0.0284375
0.212,-0.038125,-0.028125
0.213,-0.0378125,-0.0278125
0.214,-0.0378125,-0.0278125
0.215,-0.038125,-0.0278125
0.216,-0.038125,-0.0275
0.217,-0.038125,-0.0271875
0.218,-0.0384375,-0.0271875
0.219,-0.0384375,-0.026875
0.22,-0.03875,-0.026875
0.221,-0.03875,-0.026875
0.222,-0.03875,-0.0265625
0.223,-0.03875,-0.0265625
0.224,-0.0384375,-0.0265625
0.225,-0.038125,-0.0265625
0.226,-0.0378125,-0.0265625
0.227,-0.0375,-0.026875
0.228,-0.0371875,-0.026875
0.229,-0.0365625,-0.0271875
0.23,-0.0365625,-0.0271875
0.231,-0.03625,-0.0271875
0.232,-0.03625,-0.0275
0.233,-0.03625,-0.0275
0.234,-0.03625,-0.0275
0.235,-0.036875,-0.0278125
0.236,-0.036875,-0.0278125
0.237,-0.0375,-0.0278125
0.238,-0.0378125,-0.0278125
0.239,-0.038125,-0.0278125
0.24,-0.03875,-0.0278125
0.241,-0.03875,-0.0278125
0.242,-0.0390625,-0.028125
0.243,-0.039375,-0.028125
0.244,-0.039375,-0.028125
0.245,-0.039375,-0.0284375
0.246,-0.0390625,-0.0284375
0.247,-0.0390625,-0.02875
0.248,-0.0390625,-0.02875
0.249,-0.03875,-0.02875
0.25,-0.03875,-0.0290625
0.251,-0.03875,-0.0290625
0.252,-0.03875,-0.029375
0.253,-0.03875,-0.029375
0.254,-0.0390625,-0.029375
0.255,-0.039375,-0.029375
0.256,-0.0396875,-0.029375
0.257,-0.0403125,-0.029375
0.258,-0.040625,-0.029375
0.259,-0.0409375,-0.029375
0.26,-0.04125,-0.029375
0.261,-0.0415625,-0.029375
0.262,-0.041875,-0.029375
0.263,-0.041875,-0.029375
0.264,-0.041875,-0.029375
0.265,-0.0415625,-0.029375
0.266,-0.0415625,-0.029375
0.267,-0.0415625,-0.0296875
0.268,-0.04125,-0.0296875
0.269,-0.04125,-0.0296875
0.27,-0.0415625,-0.0296875
0.271,-0.0415625,-0.0296875
0.272,-0.0421875,-0.0296875
0.273,-0.0428125,-0.0296875
0.274,-0.04375,-0.029375
0.275,-0.0446875,-0.029375
0.276,-0.045625,-0.0290625
0.277,-0.046875,-0.02875
0.278,-0.048125,-0.02875
0.279,-0.0490625,-0.0284375
0.28,-0.0503125,-0.0284375
0.281,-0.05125,-0.028125
0.282,-0.051875,-0.0278125
0.283,-0.0521875,-0.0278125
0.284,-0.0521875,-0.0275
0.285,-0.0521875,-0.0275
0.286,-0.051875,-0.0275
0.287,-0.0515625,-0.0275
0.288,-0.05125,-0.0275
0.289,-0.050625,-0.0275
0.29,-0.05,-0.0275
0.291,-0.0496875,-0.0275
0.292,-0.0496875,-0.0275
0.293,-0.0496875,-0.0275
0.294,-0.0496875,-0.0275
0.295,-0.050625,-0.0271875
0.296,-0.05125,-0.026875
0.297,-0.0515625,-0.026875
0.298,-0.0521875,-0.0265625
0.299,-0.053125,-0.02625
0.3,-0.0534375,-0.02625
0.301,-0.05375,-0.025625
0.302,-0.05375,-0.025625
0.303,-0.053125,-0.025625
0.304,-0.0521875,-0.0253125
0.305,-0.0509375,-0.0253125
0.306,-0.0496875,-0.0253125
0.307,-0.0478125,-0.0253125
0.308,-0.0459375,-0.025625
0.309,-0.044375,-0.025625
0.31,-0.0428125,-0.025625
0.311,-0.04125,-0.025625
0.312,-0.04,-0.025625
0.313,-0.039375,-0.025625
0.314,-0.03875,-0.025625
0.315,-0.03875,-0.0253125
0.316,-0.0390625,-0.025
0.317,-0.0396875,-0.0246875
0.318,-0.0403125,-0.024375
0.319,-0.04125,-0.0240625
0.32,-0.041875,-0.02375
0.321,-0.0421875,-0.0234375
0.322,-0.0421875,-0.023125
0.323,-0.0421875,-0.0228125
0.324,-0.0415625,-0.0228125
0.325,-0.0403125,-0.0228125
0.326,-0.0390625,-0.0228125
0.327,-0.0378125,-0.0228125
0.328,-0.0359375,-0.0228125
0.329,-0.034375,-0.023125
0.33,-0.033125,-0.023125
0.331,-0.031875,-0.023125
0.332,-0.03125,-0.023125
0.333,-0.0309375,-0.023125
0.334,-0.0309375,-0.023125
0.335,-0.0315625,-0.023125
0.336,-0.0325,-0.0228125
0.337,-0.03375,-0.0225
0.338,-0.035,-0.0221875
0.339,-0.03625,-0.021875
0.34,-0.0375,-0.0215625
0.341,-0.03875,-0.0215625
0.342,-0.0390625,-0.0209375
0.343,-0.039375,-0.0209375
0.344,-0.0390625,-0.0209375
0.345,-0.038125,-0.020625
0.346,-0.0371875,-0.020625
0.347,-0.0359375,-0.0209375
0.348,-0.0346875,-0.0209375
0.349,-0.0334375,-0.0209375
0.35,-0.0321875,-0.02125
0.351,-0.03125,-0.02125
0.352,-0.0309375,-0.02125
0.353,-0.0309375,-0.02125
0.354,-0.03125,-0.02125
0.355,-0.0321875,-0.0209375
0.356,-0.0334375,-0.020625
0.357,-0.035,-0.020625
0.358,-0.036875,-0.0203125
0.359,-0.0384375,-0.02
0.36,-0.0396875,-0.0196875
0.361,-0.0409375,-0.0196875
0.362,-0.04125,-0.019375
0.363,-0.04125,-0.019375
0.364,-0.0409375,-0.019375
0.365,-0.0396875,-0.0196875
0.366,-0.0384375,-0.02
0.367,-0.036875,-0.02
0.368,-0.035,-0.020625
0.369,-0.033125,-0.0209375
0.37,-0.0315625,-0.02125
0.371,-0.0303125,-0.0215625
0.372,-0.0296875,-0.0221875
0.373,-0.029375,-0.0221875
0.374,-0.0296875,-0.0225
0.375,-0.030625,-0.0225
0.376,-0.031875,-0.0228125
0.377,-0.0334375,-0.0228125
0.378,-0.035,-0.0228125
0.379,-0.0365625,-0.0228125
0.38,-0.0378125,-0.0228125
0.381,-0.03875,-0.023125
0.382,-0.039375,-0.023125
0.383,-0.039375,-0.023125
0.384,-0.03875,-0.02375
0.385,-0.0375,-0.0240625
0.386,-0.0359375,-0.024375
0.387,-0.03375,-0.0253125
0.388,-0.031875,-0.025625
0.389,-0.0303125,-0.02625
0.39,-0.0284375,-0.026875
0.391,-0.0271875,-0.0271875
0.392,-0.0265625,-0.0275
0.393,-0.02625,-0.028125
0.394,-0.0265625,-0.0284375
0.395,-0.0275,-0.0284375
0.396,-0.02875,-0.0284375
0.397,-0.0303125,-0.02875
0.398,-0.031875,-0.0284375
0.399,-0.0334375,-0.0284375
0.4,-0.0346875,-0.02875
0.401,-0.035625,-0.02875
0.402,-0.0359375,-0.02875
0.403,-0.0359375,-0.02875
0.404,-0.0353125,-0.029375
0.405,-0.0340625,-0.029375
0.406,-0.0321875,-0.03
0.407,-0.0303125,-0.0303125
0.408,-0.0284375,-0.0309375
0.409,-0.02625,-0.03125
0.41,-0.024375,-0.031875
0.411,-0.023125,-0.0321875
0.412,-0.0221875,-0.0325
0.413,-0.021875,-0.0328125
0.414,-0.0221875,-0.0328125
0.415,-0.0228125,-0.0328125
0.416,-0.0240625,-0.0328125
0.417,-0.0259375,-0.0328125
0.418,-0.0271875,-0.0325
0.419,-0.0290625,-0.0325
0.42,-0.0303125,-0.0325
0.421,-0.03125,-0.0321875
0.422,-0.0315625,-0.0321875
0.423,-0.0315625,-0.0325
0.424,-0.0309375,-0.0325
0.425,-0.0296875,-0.0325
0.426,-0.0278125,-0.0328125
0.427,-0.02625,-0.0334375
0.428,-0.02375,-0.03375
0.429,-0.021875,-0.0340625
0.43,-0.02,-0.0346875
0.431,-0.01875,-0.0346875
0.432,-0.0178125,-0.0353125
0.433,-0.0175,-0.0353125
0.434,-0.0178125,-0.035625
0.435,-0.01875,-0.035625
0.436,-0.02,-0.0353125
0.437,-0.02125,-0.0353125
0.438,-0.0228125,-0.0353125
0.439,-0.024375,-0.035
0.44,-0.025625,-0.035
0.441,-0.02625,-0.035
0.442,-0.0265625,-0.0353125
0.443,-0.02625,-0.0353125
0.444,-0.025625,-0.0353125
0.445,-0.0240625,-0.0359375
0.446,-0.0225,-0.03625
0.447,-0.0203125,-0.0365625
0.448,-0.0184375,-0.0371875
0.449,-0.01625,-0.0378125
0.45,-0.0146875,-0.038125
0.451,-0.013125,-0.0384375
0.452,-0.0121875,-0.0390625
0.453,-0.011875,-0.039375
0.454,-0.0121875,-0.039375
0.455,-0.013125,-0.039375
0.456,-0.014375,-0.039375
0.457,-0.0159375,-0.039375
0.458,-0.0175,-0.039375
0.459,-0.0190625,-0.0390625
0.46,-0.0203125,-0.0390625
0.461,-0.02125,-0.0390625
0.462,-0.0215625,-0.0390625
0.463,-0.0215625,-0.0390625
0.464,-0.0209375,-0.0390625
0.465,-0.0196875,-0.039375
0.466,-0.0184375,-0.039375
0.467,-0.0165625,-0.0396875
0.468,-0.014375,-0.0403125
0.469,-0.0128125,-0.0403125
0.47,-0.0109375,-0.040625
0.471,-0.0096875,-0.04125
0.472,-0.0090625,-0.04125
0.473,-0.00875,-0.04125
0.474,-0.0090625,-0.04125
0.475,-0.0096875,-0.04125
0.476,-0.0109375,-0.04125
0.477,-0.0121875,-0.0409375
0.478,-0.0134375,-0.0409375
0.479,-0.014375,-0.0409375
0.48,-0.0153125,-0.040625
0.481,-0.015625,-0.040625
0.482,-0.015625,-0.040625
0.483,-0.0146875,-0.040625
0.484,-0.01375,-0.040625
0.485,-0.011875,-0.0409375
0.486,-0.01,-0.04125
0.487,-0.0078125,-0.0415625
0.488,-0.0053125,-0.041875
0.489,-0.0034375,-0.0421875
0.49,-0.0015625,-0.0428125
0.491,0,-0.0428125
0.492,0.0009375,-0.0434375
0.493,0.0015625,-0.0434375
0.494,0.00125,-0.04375
0.495,0.0009375,-0.04375
0.496,0,-0.04375
0.497,-0.00125,-0.04375
0.498,-0.0021875,-0.04375
0.499,-0.003125,-0.04375
0.5,-0.00375,-0.0440625
0.501,-0.0040625,-0.0440625
0.502,-0.0040625,-0.0440625
0.503,-0.0034375,-0.0446875
0.504,-0.0021875,-0.0446875
0.505,-0.000625,-0.0453125
0.506,0.0009375,-0.045625
0.507,0.003125,-0.04625
0.508,0.0046875,-0.0465625
0.509,0.0065625,-0.0471875
0.51,0.0078125,-0.0478125
0.511,0.0084375,-0.048125
0.512,0.00875,-0.0484375
0.513,0.0084375,-0.04875
0.514,0.0075,-0.0490625
0.515,0.00625,-0.0490625
0.516,0.004375,-0.049375
0.517,0.0028125,-0.049375
0.518,0.00125,-0.049375
0.519,-0.000625,-0.049375
0.52,-0.0015625,-0.049375
0.521,-0.0025,-0.049375
0.522,-0.0028125,-0.0496875
0.523,-0.0025,-0.05
0.524,-0.001875,-0.05
0.525,-0.000625,-0.050625
0.526,0.000625,-0.0509375
0.527,0.0021875,-0.05125
0.528,0.0034375,-0.051875
0.529,0.0046875,-0.0521875
0.53,0.0053125,-0.0525
0.531,0.005625,-0.0528125
0.532,0.005625,-0.053125
0.533,0.0046875,-0.053125
0.534,0.0034375,-0.053125
0.535,0.001875,-0.053125
0.536,-0.0003125,-0.053125
0.537,-0.001875,-0.0528125
0.538,-0.0040625,-0.0528125
0.539,-0.0059375,-0.0528125
0.54,-0.0071875,-0.0528125
0.541,-0.008125,-0.0528125
0.542,-0.0084375,-0.0528125
0.543,-0.0084375,-0.053125
0.544,-0.0078125,-0.053125
0.545,-0.0065625,-0.05375
0.546,-0.0053125,-0.0540625
0.547,-0.0040625,-0.054375
0.548,-0.0025,-0.055
0.549,-0.00125,-0.0553125
0.55,-0.000625,-0.055625
0.551,-0.0003125,-0.05625
0.552,-0.000625,-0.05625
0.553,-0.00125,-0.0565625
0.554,-0.0025,-0.056875
0.555,-0.0040625,-0.056875
0.556,-0.0059375,-0.056875
0.557,-0.0078125,-0.056875
0.558,-0.0096875,-0.056875
0.559,-0.01125,-0.056875
0.56,-0.0125,-0.056875
0.561,-0.0134375,-0.056875
0.562,-0.0134375,-0.0571875
0.563,-0.013125,-0.0575
0.564,-0.0125,-0.0578125
0.565,-0.01125,-0.058125
0.566,-0.0096875,-0.0584375
0.567,-0.008125,-0.0590625
0.568,-0.0065625,-0.059375
0.569,-0.0053125,-0.06
0.57,-0.0040625,-0.0603125
0.571,-0.00375,-0.060625
0.572,-0.00375,-0.0609375
0.573,-0.004375,-0.0609375
0.574,-0.0053125,-0.0609375
0.575,-0.006875,-0.0609375
0.576,-0.0084375,-0.0609375
0.577,-0.01,-0.0609375
0.578,-0.011875,-0.0609375
0.579,-0.013125,-0.060625
0.58,-0.014375,-0.060625
0.581,-0.015,-0.0609375
0.582,-0.015,-0.0609375
0.583,-0.014375,-0.0609375
0.584,-0.0134375,-0.06125
0.585,-0.011875,-0.0615625
0.586,-0.01,-0.061875
0.587,-0.0084375,-0.0621875
0.588,-0.0065625,-0.0628125
0.589,-0.005,-0.0628125
0.59,-0.00375,-0.0634375
0.591,-0.0034375,-0.0634375
0.592,-0.003125,-0.06375
0.593,-0.0034375,-0.06375
0.594,-0.0040625,-0.06375
0.595,-0.0053125,-0.0634375
0.596,-0.0071875,-0.0634375
0.597,-0.0084375,-0.0634375
0.598,-0.01,-0.063125
0.599,-0.01125,-0.063125
0.6,-0.0121875,-0.0628125
0.601,-0.0125,-0.0628125
0.602,-0.0125,-0.0628125
0.603,-0.011875,-0.063125
0.604,-0.010625,-0.063125
0.605,-0.009375,-0.0634375
0.606,-0.0075,-0.06375
0.607,-0.0059375,-0.06375
0.608,-0.00375,-0.064375
0.609,-0.0021875,-0.064375
0.61,-0.0009375,-0.0646875
0.611,0,-0.065
0.612,0,-0.065
0.613,0,-0.065
0.614,-0.0009375,-0.0646875
0.615,-0.0021875,-0.0646875
0.616,-0.0034375,-0.0646875
0.617,-0.005,-0.064375
0.618,-0.0065625,-0.0640625
0.619,-0.0078125,-0.0640625
0.62,-0.00875,-0.06375
0.621,-0.0090625,-0.06375
0.622,-0.0090625,-0.06375
0.623,-0.0084375,-0.0640625
0.624,-0.0071875,-0.0640625
0.625,-0.0059375,-0.0640625
0.626,-0.004375,-0.064375
0.627,-0.0025,-0.0646875
0.628,-0.0009375,-0.065
0.629,0.000625,-0.065
0.63,0.001875,-0.0653125
0.631,0.0025,-0.065625
0.632,0.0025,-0.065625
0.633,0.0021875,-0.065625
0.634,0.00125,-0.0653125
0.635,0,-0.0653125
0.636,-0.0015625,-0.065
0.637,-0.0034375,-0.0646875
0.638,-0.005,-0.0646875
0.639,-0.00625,-0.0640625
0.64,-0.0075,-0.0640625
0.641,-0.008125,-0.06375
0.642,-0.008125,-0.06375
0.643,-0.0078125,-0.06375
0.644,-0.006875,-0.06375
0.645,-0.005625,-0.06375
0.646,-0.0040625,-0.06375
0.647,-0.0025,-0.0640625
0.648,-0.0009375,-0.0640625
0.649,0.0003125,-0.0640625
0.65,0.0015625,-0.064375
0.651,0.0021875,-0.0640625
0.652,0.0021875,-0.0640625
0.653,0.0021875,-0.0640625
0.654,0.0009375,-0.06375
0.655,-0.0003125,-0.0634375
0.656,-0.0015625,-0.0628125
0.657,-0.003125,-0.0625
0.658,-0.0046875,-0.0621875
0.659,-0.0059375,-0.0615625
0.66,-0.006875,-0.06125
0.661,-0.0071875,-0.0609375
0.662,-0.0071875,-0.0603125
0.663,-0.006875,-0.0603125
0.664,-0.005625,-0.06
0.665,-0.0040625,-0.0596875
0.666,-0.0025,-0.0596875
0.667,-0.0009375,-0.059375
0.668,0.0009375,-0.059375
0.669,0.0025,-0.059375
0.67,0.00375,-0.0590625
0.671,0.0040625,-0.05875
0.672,0.004375,-0.0584375
0.673,0.0040625,-0.0578125
0.674,0.0034375,-0.0575
0.675,0.0021875,-0.0565625
0.676,0.000625,-0.05625
0.677,-0.000625,-0.0553125
0.678,-0.0021875,-0.0546875
0.679,-0.0034375,-0.054375
0.68,-0.004375,-0.0534375
0.681,-0.0053125,-0.053125
0.682,-0.0053125,-0.0525
0.683,-0.0046875,-0.0521875
0.684,-0.00375,-0.051875
0.685,-0.0025,-0.05125
0.686,-0.00125,-0.05125
0.687,0.000625,-0.0509375
0.688,0.001875,-0.050625
0.689,0.003125,-0.050625
0.69,0.004375,-0.0503125
0.691,0.0046875,-0.05
0.692,0.0046875,-0.0496875
0.693,0.004375,-0.049375
0.694,0.0034375,-0.0490625
0.695,0.0021875,-0.0484375
0.696,0.000625,-0.0478125
0.697,-0.0009375,-0.0471875
0.698,-0.0025,-0.046875
0.699,-0.00375,-0.0465625
0.7,-0.005,-0.0459375
0.701,-0.005625,-0.045625
0.702,-0.005625,-0.045
0.703,-0.0053125,-0.045
0.704,-0.0046875,-0.045
0.705,-0.0034375,-0.0446875
0.706,-0.0021875,-0.0446875
0.707,-0.000625,-0.0446875
0.708,0.0009375,-0.0446875
0.709,0.0021875,-0.0446875
0.71,0.003125,-0.0446875
0.711,0.0034375,-0.0446875
0.712,0.003125,-0.0446875
0.713,0.0028125,-0.044375
0.714,0.001875,-0.044375
0.715,0.0003125,-0.04375
0.716,-0.00125,-0.04375
0.717,-0.0028125,-0.043125
0.718,-0.0046875,-0.0428125
0.719,-0.0059375,-0.0428125
0.72,-0.0071875,-0.0425
0.721,-0.0078125,-0.0425
0.722,-0.008125,-0.0421875
0.723,-0.0078125,-0.0421875
0.724,-0.006875,-0.0425
0.725,-0.0059375,-0.0425
0.726,-0.0046875,-0.0425
0.727,-0.0034375,-0.0428125
0.728,-0.0021875,-0.0428125
0.729,-0.0009375,-0.043125
0.73,0,-0.043125
0.731,0.0003125,-0.043125
0.732,0.0003125,-0.043125
0.733,0,-0.043125
0.734,-0.00125,-0.043125
0.735,-0.0025,-0.0428125
0.736,-0.0040625,-0.0428125
0.737,-0.005625,-0.0425
0.738,-0.0071875,-0.041875
0.739,-0.0084375,-0.041875
0.74,-0.009375,-0.0415625
0.741,-0.01,-0.0409375
0.742,-0.0103125,-0.0409375
0.743,-0.01,-0.0409375
0.744,-0.0090625,-0.040625
0.745,-0.008125,-0.040625
0.746,-0.006875,-0.040625
0.747,-0.005625,-0.040625
0.748,-0.0040625,-0.040625
0.749,-0.0028125,-0.0403125
0.75,-0.0021875,-0.0403125
0.751,-0.001875,-0.0403125
0.752,-0.001875,-0.0396875
0.753,-0.0021875,-0.0396875
0.754,-0.0034375,-0.0390625
0.755,-0.0046875,-0.03875
0.756,-0.00625,-0.038125
0.757,-0.0078125,-0.0378125
0.758,-0.0096875,-0.036875
0.759,-0.0109375,-0.03625
0.76,-0.0121875,-0.0359375
0.761,-0.013125,-0.035625
0.762,-0.013125,-0.035
0.763,-0.013125,-0.0346875
0.764,-0.0125,-0.034375
0.765,-0.0115625,-0.0340625
0.766,-0.010625,-0.0340625
0.767,-0.009375,-0.0340625
0.768,-0.008125,-0.03375
0.769,-0.0075,-0.03375
0.77,-0.0065625,-0.0334375
0.771,-0.0065625,-0.0334375
0.772,-0.006875,-0.0328125
0.773,-0.0071875,-0.0328125
0.774,-0.0084375,-0.0321875
0.775,-0.0096875,-0.031875
0.776,-0.0115625,-0.03125
0.777,-0.013125,-0.0309375
0.778,-0.0146875,-0.0303125
0.779,-0.01625,-0.03
0.78,-0.0175,-0.0296875
0.781,-0.018125,-0.0290625
0.782,-0.0184375,-0.0290625
0.783,-0.018125,-0.02875
0.784,-0.0178125,-0.02875
0.785,-0.016875,-0.02875
0.786,-0.015625,-0.02875
0.787,-0.014375,-0.02875
0.788,-0.013125,-0.02875
0.789,-0.0121875,-0.0290625
0.79,-0.0115625,-0.0290625
0.791,-0.0109375,-0.0290625
0.792,-0.01125,-0.02875
0.793,-0.0115625,-0.02875
0.794,-0.0125,-0.02875
0.795,-0.01375,-0.0284375
0.796,-0.0153125,-0.028125
0.797,-0.016875,-0.0278125
0.798,-0.018125,-0.0275
0.799,-0.019375,-0.0275
0.8,-0.020625,-0.026875
0.801,-0.0209375,-0.026875
0.802,-0.0209375,-0.026875
0.803,-0.020625,-0.026875
0.804,-0.0196875,-0.026875
0.805,-0.0184375,-0.026875
0.806,-0.0171875,-0.026875
0.807,-0.015625,-0.0271875
0.808,-0.0140625,-0.0271875
0.809,-0.0128125,-0.0275
0.81,-0.011875,-0.0275
0.811,-0.0109375,-0.0275
0.812,-0.0109375,-0.0275
0.813,-0.01125,-0.0275
0.814,-0.011875,-0.0271875
0.815,-0.0128125,-0.026875
0.816,-0.0140625,-0.0265625
0.817,-0.015,-0.0265625
0.818,-0.01625,-0.0259375
0.819,-0.0175,-0.025625
0.82,-0.0178125,-0.025625
0.821,-0.018125,-0.025
0.822,-0.018125,-0.025
0.823,-0.0175,-0.025
0.824,-0.0165625,-0.0246875
0.825,-0.0153125,-0.0246875
0.826,-0.01375,-0.0246875
0.827,-0.0121875,-0.0246875
0.828,-0.010625,-0.0246875
0.829,-0.009375,-0.0246875
0.83,-0.008125,-0.0246875
0.831,-0.0075,-0.024375
0.832,-0.0075,-0.024375
0.833,-0.0078125,-0.0240625
0.834,-0.0084375,-0.02375
0.835,-0.0096875,-0.0234375
0.836,-0.0109375,-0.023125
0.837,-0.0121875,-0.0228125
0.838,-0.0134375,-0.0221875
0.839,-0.0146875,-0.021875
0.84,-0.015625,-0.0215625
0.841,-0.0159375,-0.02125
0.842,-0.0159375,-0.02125
0.843,-0.015625,-0.0209375
0.844,-0.015,-0.020625
0.845,-0.01375,-0.020625
0.846,-0.0125,-0.020625
0.847,-0.01125,-0.020625
0.848,-0.0096875,-0.020625
0.849,-0.0084375,-0.020625
0.85,-0.0078125,-0.020625
0.851,-0.0071875,-0.0203125
0.852,-0.0071875,-0.0203125
0.853,-0.0075,-0.02
0.854,-0.008125,-0.0196875
0.855,-0.009375,-0.0196875
0.856,-0.010625,-0.0190625
0.857,-0.011875,-0.01875
0.858,-0.013125,-0.0184375
0.859,-0.0140625,-0.018125
0.86,-0.015,-0.0178125
0.861,-0.015,-0.0175
0.862,-0.015,-0.0175
0.863,-0.0146875,-0.0171875
0.864,-0.0134375,-0.0171875
0.865,-0.0121875,-0.0175
0.866,-0.0109375,-0.0175
0.867,-0.0090625,-0.0175
0.868,-0.0078125,-0.0178125
0.869,-0.0065625,-0.0178125
0.87,-0.0053125,-0.0178125
0.871,-0.0046875,-0.018125
0.872,-0.004375,-0.018125
0.873,-0.0046875,-0.0178125
0.874,-0.0053125,-0.0178125
0.875,-0.00625,-0.0178125
0.876,-0.0075,-0.0175
0.877,-0.00875,-0.0175
0.878,-0.01,-0.0171875
0.879,-0.0109375,-0.016875
0.88,-0.0115625,-0.016875
0.881,-0.0121875,-0.0165625
0.882,-0.011875,-0.0165625
0.883,-0.0115625,-0.0165625
0.884,-0.0109375,-0.0165625
0.885,-0.0096875,-0.016875
0.886,-0.0084375,-0.016875
0.887,-0.0071875,-0.016875
0.888,-0.0059375,-0.0171875
0.889,-0.0046875,-0.0171875
0.89,-0.0040625,-0.0171875
0.891,-0.00375,-0.0171875
0.892,-0.00375,-0.0171875
0.893,-0.0040625,-0.016875
0.894,-0.005,-0.016875
0.895,-0.00625,-0.01625
0.896,-0.0075,-0.01625
0.897,-0.009375,-0.015625
0.898,-0.010625,-0.0153125
0.899,-0.011875,-0.015
0.9,-0.013125,-0.014375
0.901,-0.0134375,-0.014375
0.902,-0.01375,-0.01375
0.903,-0.0134375,-0.01375
0.904,-0.013125,-0.0134375
0.905,-0.0121875,-0.0134375
0.906,-0.01125,-0.0134375
0.907,-0.01,-0.013125
0.908,-0.00875,-0.013125
0.909,-0.0078125,-0.013125
0.91,-0.0071875,-0.013125
0.911,-0.006875,-0.0128125
0.912,-0.006875,-0.0128125
0.913,-0.0075,-0.0125
0.914,-0.008125,-0.0121875
0.915,-0.009375,-0.0121875
0.916,-0.010625,-0.0115625
0.917,-0.0121875,-0.01125
0.918,-0.0134375,-0.0109375
0.919,-0.0146875,-0.010625
0.92,-0.0153125,-0.010625
0.921,-0.0159375,-0.0103125
0.922,-0.0159375,-0.01
0.923,-0.015625,-0.01
0.924,-0.0146875,-0.0103125
0.925,-0.01375,-0.0103125
0.926,-0.0121875,-0.0103125
0.927,-0.0109375,-0.010625
0.928,-0.0096875,-0.010625
0.929,-0.0084375,-0.0109375
0.93,-0.0071875,-0.01125
0.931,-0.006875,-0.01125
0.932,-0.0065625,-0.01125
0.933,-0.006875,-0.01125
0.934,-0.0071875,-0.01125
0.935,-0.008125,-0.01125
0.936,-0.0090625,-0.01125
0.937,-0.0103125,-0.01125
0.938,-0.01125,-0.0109375
0.939,-0.0121875,-0.0109375
0.94,-0.0128125,-0.0109375
0.941,-0.013125,-0.0109375
0.942,-0.013125,-0.01125
0.943,-0.0125,-0.01125
0.944,-0.011875,-0.0115625
0.945,-0.010625,-0.011875
0.946,-0.009375,-0.011875
0.947,-0.0078125,-0.0125
0.948,-0.0065625,-0.0125
0.949,-0.0053125,-0.013125
0.95,-0.004375,-0.013125
0.951,-0.0040625,-0.01375
0.952,-0.0040625,-0.01375
0.953,-0.0040625,-0.01375
0.954,-0.005,-0.0140625
0.955,-0.0059375,-0.0140625
0.956,-0.0071875,-0.0140625
0.957,-0.00875,-0.0140625
0.958,-0.01,-0.0140625
0.959,-0.01125,-0.0140625
0.96,-0.011875,-0.014375
0.961,-0.0128125,-0.014375
0.962,-0.0128125,-0.014375
0.963,-0.0125,-0.0146875
0.964,-0.0121875,-0.015
0.965,-0.01125,-0.0153125
0.966,-0.01,-0.015625
0.967,-0.0090625,-0.0159375
0.968,-0.0078125,-0.01625
0.969,-0.006875,-0.016875
0.97,-0.00625,-0.016875
0.971,-0.0059375,-0.0175
0.972,-0.0059375,-0.0175
0.973,-0.0065625,-0.0175
0.974,-0.0071875,-0.0178125
0.975,-0.0084375,-0.0178125
0.976,-0.0096875,-0.0178125
0.977,-0.0109375,-0.0178125
0.978,-0.0121875,-0.0178125
0.979,-0.0134375,-0.0178125
0.98,-0.014375,-0.0178125
0.981,-0.0146875,-0.0178125
0.982,-0.0146875,-0.018125
0.983,-0.0146875,-0.018125
0.984,-0.01375,-0.018125
0.985,-0.013125,-0.01875
0.986,-0.011875,-0.01875
0.987,-0.010625,-0.0190625
0.988,-0.009375,-0.019375
0.989,-0.0084375,-0.0196875
0.99,-0.0075,-0.02
0.991,-0.006875,-0.02
0.992,-0.006875,-0.02
0.993,-0.0075,-0.02
0.994,-0.008125,-0.02
0.995,-0.00875,-0.02
0.996,-0.01,-0.0196875
0.997,-0.01125,-0.0196875
0.998,-0.0125,-0.019375
0.999,-0.0134375,-0.019375
1,-0.0140625,-0.019375
1.001,-0.014375,-0.0190625
1.002,-0.014375,-0.0190625
1.003,-0.0140625,-0.01875
1.004,-0.0134375,-0.01875
1.005,-0.0121875,-0.0190625
1.006,-0.0109375,-0.0190625
1.007,-0.0096875,-0.0190625
1.008,-0.0084375,-0.0190625
1.009,-0.0071875,-0.0190625
1.01,-0.00625,-0.0190625
1.011,-0.005625,-0.01875
1.012,-0.0053125,-0.01875
1.013,-0.0053125,-0.0184375
1.014,-0.0059375,-0.0184375
1.015,-0.0065625,-0.0178125
1.016,-0.0075,-0.0175
1.017,-0.0084375,-0.0171875
1.018,-0.009375,-0.0165625
1.019,-0.01,-0.01625
1.02,-0.010625,-0.0159375
1.021,-0.010625,-0.015625
1.022,-0.0103125,-0.0153125
1.023,-0.01,-0.015
1.024,-0.0090625,-0.0146875
1.025,-0.0078125,-0.0146875
1.026,-0.0065625,-0.0146875
1.027,-0.0053125,-0.014375
1.028,-0.00375,-0.014375
1.029,-0.0025,-0.014375
1.03,-0.001875,-0.0140625
1.031,-0.00125,-0.0140625
1.032,-0.0009375,-0.0140625
1.033,-0.00125,-0.01375
1.034,-0.001875,-0.0134375
1.035,-0.0025,-0.013125
1.036,-0.00375,-0.013125
1.037,-0.005,-0.0125
1.038,-0.00625,-0.0125
1.039,-0.0071875,-0.0121875
1.04,-0.0078125,-0.011875
1.041,-0.0084375,-0.0115625
1.042,-0.0084375,-0.0115625
1.043,-0.008125,-0.0115625
1.044,-0.0075,-0.0115625
1.045,-0.006875,-0.011875
1.046,-0.005625,-0.011875
1.047,-0.0046875,-0.0121875
1.048,-0.0034375,-0.0121875
1.049,-0.0028125,-0.0125
1.05,-0.0021875,-0.0128125
1.051,-0.001875,-0.0128125
1.052,-0.001875,-0.0128125
1.053,-0.0021875,-0.0128125
1.054,-0.003125,-0.0128125
1.055,-0.0040625,-0.0128125
1.056,-0.0053125,-0.0128125
1.057,-0.0065625,-0.0128125
1.058,-0.0075,-0.0128125
1.059,-0.0084375,-0.0128125
1.06,-0.0096875,-0.0128125
1.061,-0.01,-0.0128125
1.062,-0.01,-0.0128125
1.063,-0.01,-0.0128125
1.064,-0.0090625,-0.013125
1.065,-0.0084375,-0.013125
1.066,-0.0071875,-0.0134375
1.067,-0.0059375,-0.01375
1.068,-0.005,-0.01375
1.069,-0.0040625,-0.0140625
1.07,-0.003125,-0.014375
1.071,-0.0028125,-0.014375
1.072,-0.0028125,-0.014375
1.073,-0.003125,-0.014375
1.074,-0.00375,-0.014375
1.075,-0.0046875,-0.0140625
1.076,-0.005625,-0.0140625
1.077,-0.006875,-0.01375
1.078,-0.008125,-0.0134375
1.079,-0.0090625,-0.0134375
1.08,-0.0096875,-0.013125
1.081,-0.0103125,-0.013125
1.082,-0.0103125,-0.013125
1.083,-0.0096875,-0.0128125
1.084,-0.0090625,-0.0128125
1.085,-0.0084375,-0.0128125
1.086,-0.0071875,-0.0128125
1.087,-0.0059375,-0.013125
1.088,-0.0046875,-0.013125
1.089,-0.0040625,-0.013125
1.09,-0.0028125,-0.013125
1.091,-0.0025,-0.0128125
1.092,-0.0025,-0.0128125
1.093,-0.0025,-0.0128125
1.094,-0.003125,-0.0125
1.095,-0.0040625,-0.0121875
1.096,-0.005,-0.011875
1.097,-0.0059375,-0.0115625
1.098,-0.0071875,-0.01125
1.099,-0.0078125,-0.0109375
1.1,-0.00875,-0.010625
1.101,-0.0090625,-0.0103125
1.102,-0.0090625,-0.01
1.103,-0.00875,-0.01
1.104,-0.008125,-0.01
1.105,-0.0071875,-0.0096875
1.106,-0.0059375,-0.0096875
1.107,-0.005,-0.0096875
1.108,-0.00375,-0.0096875
1.109,-0.0025,-0.0096875
1.11,-0.001875,-0.0096875
1.111,-0.0015625,-0.0096875
1.112,-0.00125,-0.0096875
1.113,-0.001875,-0.0096875
1.114,-0.0021875,-0.009375
1.115,-0.003125,-0.0090625
1.116,-0.0040625,-0.0090625
1.117,-0.0053125,-0.00875
1.118,-0.0065625,-0.008125
1.119,-0.0075,-0.008125
1.12,-0.008125,-0.0078125
1.121,-0.0084375,-0.0075
1.122,-0.00875,-0.0075
1.123,-0.0084375,-0.0075
1.124,-0.008125,-0.0075
1.125,-0.0071875,-0.0075
1.126,-0.00625,-0.0075
1.127,-0.0053125,-0.0075
1.128,-0.0040625,-0.0078125
1.129,-0.0034375,-0.0078125
1.13,-0.0028125,-0.0078125
1.131,-0.0025,-0.008125
1.132,-0.0025,-0.008125
1.133,-0.0028125,-0.008125
1.134,-0.00375,-0.0078125
1.135,-0.0046875,-0.0078125
1.136,-0.005625,-0.0078125
1.137,-0.006875,-0.0075
1.138,-0.008125,-0.0075
1.139,-0.009375,-0.0075
1.14,-0.01,-0.0071875
1.141,-0.010625,-0.0071875
1.142,-0.0109375,-0.0075
1.143,-0.0109375,-0.0075
1.144,-0.0103125,-0.0075
1.145,-0.0096875,-0.0075
1.146,-0.00875,-0.0078125
1.147,-0.008125,-0.008125
1.148,-0.0071875,-0.008125
1.149,-0.00625,-0.0084375
1.15,-0.0059375,-0.00875
1.151,-0.005625,-0.00875
1.152,-0.005625,-0.0090625
1.153,-0.0059375,-0.0090625
1.154,-0.006875,-0.0090625
1.155,-0.0078125,-0.0090625
1.156,-0.0090625,-0.00875
1.157,-0.0103125,-0.00875
1.158,-0.0115625,-0.00875
1.159,-0.0125,-0.0084375
1.16,-0.0134375,-0.0084375
1.161,-0.01375,-0.0084375
1.162,-0.0140625,-0.0084375
1.163,-0.0140625,-0.00875
1.164,-0.01375,-0.00875
1.165,-0.0128125,-0.0090625
1.166,-0.011875,-0.0090625
1.167,-0.01125,-0.0090625
1.168,-0.0103125,-0.009375
1.169,-0.009375,-0.0096875
1.17,-0.0090625,-0.0096875
1.171,-0.00875,-0.01
1.172,-0.00875,-0.01
1.173,-0.0090625,-0.01
1.174,-0.01,-0.01
1.175,-0.0109375,-0.01
1.176,-0.011875,-0.01
1.177,-0.013125,-0.01
1.178,-0.014375,-0.0096875
1.179,-0.015,-0.0096875
1.18,-0.015625,-0.0096875
1.181,-0.01625,-0.0096875
1.182,-0.01625,-0.0096875
1.183,-0.015625,-0.0096875
1.184,-0.015,-0.01
1.185,-0.0140625,-0.01
1.186,-0.0128125,-0.01
1.187,-0.0115625,-0.0103125
1.188,-0.0103125,-0.010625
1.189,-0.009375,-0.010625
1.19,-0.0084375,-0.0109375
1.191,-0.0078125,-0.0109375
1.192,-0.0075,-0.0109375
1.193,-0.0075,-0.0109375
1.194,-0.0078125,-0.010625
1.195,-0.008125,-0.010625
1.196,-0.0090625,-0.0103125
1.197,-0.009375,-0.01
1.198,-0.0103125,-0.0096875
1.199,-0.010625,-0.0096875
1.2,-0.0109375,-0.009375
1.201,-0.0109375,-0.0090625
1.202,-0.010625,-0.00875
1.203,-0.0096875,-0.00875
1.204,-0.00875,-0.0084375
1.205,-0.0075,-0.0084375
1.206,-0.0059375,-0.008125
1.207,-0.0046875,-0.008125
1.208,-0.0034375,-0.008125
1.209,-0.0021875,-0.0078125
1.21,-0.0009375,-0.0078125
1.211,-0.000625,-0.0075
1.212,-0.0003125,-0.0071875
1.213,-0.0003125,-0.0071875
1.214,-0.000625,-0.0065625
1.215,-0.00125,-0.00625
1.216,-0.0021875,-0.0059375
1.217,-0.003125,-0.005625
1.218,-0.00375,-0.0053125
1.219,-0.0046875,-0.005
1.22,-0.0053125,-0.0046875
1.221,-0.005625,-0.004375
1.222,-0.005625,-0.004375
1.223,-0.005,-0.004375
1.224,-0.004375,-0.004375
1.225,-0.00375,-0.004375
1.226,-0.0028125,-0.0046875
1.227,-0.0015625,-0.0046875
1.228,-0.000625,-0.0046875
1.229,0.0003125,-0.005
1.23,0.0009375,-0.0053125
1.231,0.00125,-0.005625
1.232,0.00125,-0.005625
1.233,0.0009375,-0.0059375
1.234,0.0003125,-0.0059375
1.235,-0.000625,-0.0059375
1.236,-0.0015625,-0.00625
1.237,-0.0028125,-0.00625
1.238,-0.0040625,-0.0065625
1.239,-0.0046875,-0.0065625
1.24,-0.005625,-0.0065625
1.241,-0.0059375,-0.006875
1.242,-0.00625,-0.0071875
1.243,-0.0059375,-0.0071875
1.244,-0.005625,-0.0078125
1.245,-0.0046875,-0.008125
1.246,-0.00375,-0.0084375
1.247,-0.0028125,-0.00875
1.248,-0.001875,-0.0090625
1.249,-0.00125,-0.0096875
1.25,-0.000625,-0.0096875
1.251,-0.0003125,-0.01
1.252,-0.0003125,-0.0103125
1.253,-0.0009375,-0.0103125
1.254,-0.0015625,-0.010625
1.255,-0.0025,-0.010625
1.256,-0.00375,-0.0103125
1.257,-0.005,-0.0103125
1.258,-0.00625,-0.0103125
1.259,-0.0071875,-0.0103125
1.26,-0.008125,-0.0103125
1.261,-0.0084375,-0.0103125
1.262,-0.00875,-0.010625
1.263,-0.00875,-0.010625
1.264,-0.0084375,-0.010625
1.265,-0.0078125,-0.0109375
1.266,-0.006875,-0.0109375
1.267,-0.00625,-0.01125
1.268,-0.0053125,-0.0115625
1.269,-0.0046875,-0.011875
1.27,-0.0040625,-0.011875
1.271,-0.0040625,-0.0121875
1.272,-0.0040625,-0.0121875
1.273,-0.0046875,-0.0121875
1.274,-0.0053125,-0.0121875
1.275,-0.00625,-0.0121875
1.276,-0.0075,-0.0121875
1.277,-0.0084375,-0.0121875
1.278,-0.0096875,-0.0121875
1.279,-0.010625,-0.011875
1.28,-0.01125,-0.011875
1.281,-0.011875,-0.011875
1.282,-0.011875,-0.011875
1.283,-0.0115625,-0.0121875
1.284,-0.0109375,-0.0121875
1.285,-0.01,-0.0121875
1.286,-0.0090625,-0.0125
1.287,-0.008125,-0.0125
1.288,-0.0071875,-0.0128125
1.289,-0.0059375,-0.0128125
1.29,-0.005,-0.0128125
1.291,-0.0046875,-0.013125
1.292,-0.004375,-0.013125
1.293,-0.004375,-0.013125
1.294,-0.005,-0.0128125
1.295,-0.005625,-0.0128125
1.296,-0.0065625,-0.0128125
1.297,-0.0071875,-0.0125
1.298,-0.008125,-0.0121875
1.299,-0.00875,-0.011875
1.3,-0.0090625,-0.011875
1.301,-0.009375,-0.011875
1.302,-0.009375,-0.0115625
1.303,-0.0090625,-0.0115625
1.304,-0.008125,-0.0115625
1.305,-0.0071875,-0.0115625
1.306,-0.00625,-0.0115625
1.307,-0.005,-0.011875
1.308,-0.00375,-0.011875
1.309,-0.0028125,-0.011875
1.31,-0.001875,-0.011875
1.311,-0.0015625,-0.011875
1.312,-0.00125,-0.011875
1.313,-0.00125,-0.011875
1.314,-0.001875,-0.011875
1.315,-0.0025,-0.011875
1.316,-0.0034375,-0.011875
1.317,-0.0040625,-0.0115625
1.318,-0.005,-0.0115625
1.319,-0.0059375,-0.01125
1.32,-0.00625,-0.01125
1.321,-0.0065625,-0.01125
1.322,-0.0065625,-0.0115625
1.323,-0.00625,-0.0115625
1.324,-0.005625,-0.0115625
1.325,-0.0046875,-0.011875
1.326,-0.00375,-0.0121875
1.327,-0.0025,-0.0121875
1.328,-0.00125,-0.0125
1.329,-0.000625,-0.0128125
1.33,0.0003125,-0.0128125
1.331,0.0009375,-0.013125
1.332,0.0009375,-0.0134375
1.333,0.0009375,-0.0134375
1.334,0.000625,-0.01375
1.335,0,-0.01375
1.336,-0.0009375,-0.01375
1.337,-0.0015625,-0.01375
1.338,-0.0025,-0.0140625
1.339,-0.003125,-0.0140625
1.34,-0.00375,-0.0140625
1.341,-0.0040625,-0.014375
1.342,-0.0040625,-0.0146875
1.343,-0.0034375,-0.0146875
1.344,-0.003125,-0.015
1.345,-0.0021875,-0.0153125
1.346,-0.00125,-0.015625
1.347,-0.0003125,-0.0159375
1.348,0.000625,-0.01625
1.349,0.0015625,-0.016875
1.35,0.0021875,-0.0171875
1.351,0.0025,-0.0175
1.352,0.0025,-0.0178125
1.353,0.0021875,-0.018125
1.354,0.001875,-0.018125
1.355,0.0009375,-0.0184375
1.356,0.0003125,-0.01875
1.357,-0.0009375,-0.01875
1.358,-0.0015625,-0.0190625
1.359,-0.0025,-0.019375
1.36,-0.003125,-0.0196875
1.361,-0.0034375,-0.0196875
1.362,-0.0034375,-0.02
1.363,-0.003125,-0.020625
1.364,-0.0028125,-0.0209375
1.365,-0.001875,-0.02125
1.366,-0.0009375,-0.021875
1.367,0,-0.0221875
1.368,0.0009375,-0.0225
1.369,0.001875,-0.023125
1.37,0.0025,-0.0234375
1.371,0.0028125,-0.0240625
1.372,0.0028125,-0.024375
1.373,0.0028125,-0.0246875
1.374,0.0025,-0.025
1.375,0.0015625,-0.025
1.376,0.0009375,-0.025625
1.377,0.0003125,-0.025625
1.378,-0.000625,-0.025625
1.379,-0.0009375,-0.0259375
1.38,-0.0015625,-0.02625
1.381,-0.001875,-0.02625
1.382,-0.0015625,-0.0265625
1.383,-0.0009375,-0.026875
1.384,-0.000625,-0.026875
1.385,0.0003125,-0.0275
1.386,0.0015625,-0.0275
1.387,0.0021875,-0.0278125
1.388,0.0034375,-0.028125
1.389,0.004375,-0.028125
1.39,0.005,-0.028125
1.391,0.005625,-0.0284375
1.392,0.005625,-0.0284375
1.393,0.005625,-0.0284375
1.394,0.0053125,-0.0284375
1.395,0.004375,-0.028125
1.396,0.0034375,-0.028125
1.397,0.0028125,-0.0278125
1.398,0.001875,-0.0278125
1.399,0.0015625,-0.0278125
1.4,0.0009375,-0.0275
1.401,0.000625,-0.0275
1.402,0.000625,-0.0271875
1.403,0.00125,-0.0271875
1.404,0.001875,-0.0271875
1.405,0.0025,-0.0271875
1.406,0.00375,-0.0271875
1.407,0.0046875,-0.0275
1.408,0.0059375,-0.0275
1.409,0.006875,-0.0275
1.41,0.0078125,-0.0275
1.411,0.0084375,-0.0271875
1.412,0.0084375,-0.0271875
1.413,0.0084375,-0.0271875
1.414,0.0084375,-0.026875
1.415,0.0078125,-0.026875
1.416,0.0075,-0.0265625
1.417,0.0065625,-0.02625
1.418,0.00625,-0.02625
1.419,0.0053125,-0.0259375
1.42,0.0053125,-0.025625
1.421,0.0053125,-0.0253125
1.422,0.0053125,-0.0253125
1.423,0.0059375,-0.0253125
1.424,0.006875,-0.025
1.425,0.0078125,-0.025
1.426,0.0090625,-0.025
1.427,0.01,-0.025
1.428,0.01125,-0.025
1.429,0.0121875,-0.025
1.43,0.013125,-0.025
1.431,0.0134375,-0.025
1.432,0.01375,-0.0246875
1.433,0.01375,-0.0246875
1.434,0.0134375,-0.024375
1.435,0.0128125,-0.0240625
1.436,0.011875,-0.02375
1.437,0.01125,-0.0234375
1.438,0.0103125,-0.023125
1.439,0.009375,-0.0228125
1.44,0.00875,-0.0225
1.441,0.0084375,-0.0225
1.442,0.0084375,-0.021875
1.443,0.0084375,-0.021875
1.444,0.00875,-0.021875
1.445,0.0090625,-0.0215625
1.446,0.01,-0.0215625
1.447,0.0103125,-0.02125
1.448,0.0109375,-0.02125
1.449,0.011875,-0.02125
1.45,0.011875,-0.02125
1.451,0.011875,-0.0209375
1.452,0.011875,-0.020625
1.453,0.01125,-0.0203125
1.454,0.0103125,-0.0203125
1.455,0.009375,-0.02
1.456,0.008125,-0.0196875
1.457,0.006875,-0.019375
1.458,0.005625,-0.01875
1.459,0.004375,-0.0184375
1.46,0.00375,-0.0184375
1.461,0.0028125,-0.018125
1.462,0.0025,-0.0178125
1.463,0.0025,-0.0178125
1.464,0.0025,-0.0175
1.465,0.0028125,-0.0175
1.466,0.0034375,-0.0175
1.467,0.00375,-0.0175
1.468,0.0046875,-0.0175
1.469,0.005,-0.0171875
1.47,0.005625,-0.0171875
1.471,0.005625,-0.0171875
1.472,0.005625,-0.0171875
1.473,0.0053125,-0.0171875
1.474,0.004375,-0.016875
1.475,0.00375,-0.0165625
1.476,0.0028125,-0.0165625
1.477,0.0015625,-0.01625
1.478,0.000625,-0.01625
1.479,0,-0.0159375
1.48,-0.0009375,-0.015625
1.481,-0.00125,-0.015625
1.482,-0.00125,-0.0153125
1.483,-0.00125,-0.0153125
1.484,-0.0009375,-0.0153125
1.485,-0.000625,-0.015
1.486,0.0003125,-0.015
1.487,0.00125,-0.015
1.488,0.0015625,-0.015
1.489,0.0025,-0.015
1.49,0.0028125,-0.0146875
1.491,0.003125,-0.0146875
1.492,0.003125,-0.0146875
1.493,0.0028125,-0.014375
1.494,0.0021875,-0.0140625
1.495,0.00125,-0.01375
1.496,0.000625,-0.0134375
1.497,-0.000625,-0.013125
1.498,-0.0015625,-0.0128125
1.499,-0.0025,-0.0125
1.5,-0.003125,-0.0121875
1.501,-0.00375,-0.011875
1.502,-0.0040625,-0.011875
1.503,-0.0040625,-0.0115625
1.504,-0.00375,-0.01125
1.505,-0.0034375,-0.01125
1.506,-0.0025,-0.01125
1.507,-0.0021875,-0.0109375
1.508,-0.00125,-0.0109375
1.509,-0.0009375,-0.0109375
1.51,-0.000625,-0.0109375
1.511,-0.0003125,-0.0109375
1.512,-0.0003125,-0.0109375
1.513,-0.0009375,-0.010625
1.514,-0.00125,-0.010625
1.515,-0.0021875,-0.010625
1.516,-0.0028125,-0.0103125
1.517,-0.00375,-0.0103125
1.518,-0.0046875,-0.01
1.519,-0.005,-0.01
1.52,-0.0059375,-0.01
1.521,-0.0059375,-0.01
1.522,-0.0059375,-0.0103125
1.523,-0.005625,-0.0103125
1.524,-0.0053125,-0.0103125
1.525,-0.004375,-0.0109375
1.526,-0.00375,-0.0109375
1.527,-0.0028125,-0.01125
1.528,-0.001875,-0.0115625
1.529,-0.0009375,-0.011875
1.53,-0.0003125,-0.0121875
1.531,0,-0.0125
1.532,0.0003125,-0.0125
1.533,0.0003125,-0.013125
1.534,-0.0003125,-0.013125
1.535,-0.0009375,-0.0134375
1.536,-0.00125,-0.0134375
1.537,-0.0021875,-0.0134375
1.538,-0.003125,-0.01375
1.539,-0.00375,-0.01375
1.54,-0.0040625,-0.01375
1.541,-0.004375,-0.0140625
1.542,-0.0046875,-0.0140625
1.543,-0.004375,-0.0146875
1.544,-0.0040625,-0.0146875
1.545,-0.00375,-0.015
1.546,-0.0028125,-0.0153125
1.547,-0.0021875,-0.015625
1.548,-0.00125,-0.0159375
1.549,-0.0009375,-0.01625
1.55,-0.000625,-0.0165625
1.551,-0.0003125,-0.0165625
1.552,-0.0003125,-0.016875
1.553,-0.0009375,-0.0171875
1.554,-0.0015625,-0.0171875
1.555,-0.0021875,-0.0171875
1.556,-0.003125,-0.0171875
1.557,-0.0040625,-0.0175
1.558,-0.0053125,-0.0175
1.559,-0.0059375,-0.0175
1.56,-0.0065625,-0.0175
1.561,-0.0071875,-0.0175
1.562,-0.0071875,-0.0175
1.563,-0.0071875,-0.0178125
1.564,-0.0071875,-0.0178125
1.565,-0.0065625,-0.0178125
1.566,-0.005625,-0.018125
1.567,-0.0053125,-0.0184375
1.568,-0.004375,-0.0184375
1.569,-0.00375,-0.01875
1.57,-0.0034375,-0.0190625
1.571,-0.003125,-0.0190625
1.572,-0.003125,-0.019375
1.573,-0.0034375,-0.019375
1.574,-0.00375,-0.019375
1.575,-0.0046875,-0.019375
1.576,-0.0053125,-0.019375
1.577,-0.00625,-0.0196875
1.578,-0.006875,-0.0196875
1.579,-0.0078125,-0.0196875
1.58,-0.008125,-0.0196875
1.581,-0.0084375,-0.0196875
1.582,-0.0084375,-0.02
1.583,-0.0084375,-0.02
1.584,-0.0078125,-0.0203125
1.585,-0.0071875,-0.020625
1.586,-0.00625,-0.0209375
1.587,-0.005625,-0.0209375
1.588,-0.0046875,-0.02125
1.589,-0.00375,-0.0215625
1.59,-0.0034375,-0.021875
1.591,-0.003125,-0.0221875
1.592,-0.0028125,-0.0221875
1.593,-0.003125,-0.0221875
1.594,-0.0034375,-0.0225
1.595,-0.0040625,-0.0225
1.596,-0.0046875,-0.0225
1.597,-0.005625,-0.0228125
1.598,-0.0065625,-0.0228125
1.599,-0.006875,-0.0228125
1.6,-0.0078125,-0.0228125
1.601,-0.008125,-0.0228125
1.602,-0.008125,-0.023125
1.603,-0.008125,-0.023125
1.604,-0.0078125,-0.0234375
1.605,-0.0075,-0.02375
1.606,-0.006875,-0.02375
1.607,-0.00625,-0.0240625
1.608,-0.005625,-0.0240625
1.609,-0.0053125,-0.024375
1.61,-0.005,-0.0246875
1.611,-0.005,-0.025
1.612,-0.005,-0.025
1.613,-0.005625,-0.025
1.614,-0.00625,-0.025
1.615,-0.0071875,-0.025
1.616,-0.008125,-0.025
1.617,-0.009375,-0.025
1.618,-0.010625,-0.025
1.619,-0.0115625,-0.025
1.62,-0.0125,-0.0253125
1.621,-0.013125,-0.0253125
1.622,-0.0134375,-0.0253125
1.623,-0.0134375,-0.0253125
1.624,-0.0134375,-0.0253125
1.625,-0.013125,-0.0253125
1.626,-0.0128125,-0.025625
1.627,-0.0121875,-0.025625
1.628,-0.011875,-0.025625
1.629,-0.01125,-0.0259375
1.63,-0.0109375,-0.0259375
1.631,-0.0109375,-0.0259375
1.632,-0.0109375,-0.0259375
1.633,-0.01125,-0.0259375
1.634,-0.0115625,-0.0259375
1.635,-0.0125,-0.0259375
1.636,-0.013125,-0.0259375
1.637,-0.0140625,-0.025625
1.638,-0.015,-0.025625
1.639,-0.0153125,-0.025625
1.64,-0.0159375,-0.0253125
1.641,-0.01625,-0.0253125
1.642,-0.01625,-0.025
1.643,-0.0159375,-0.025
1.644,-0.015625,-0.025
1.645,-0.0146875,-0.025
1.646,-0.01375,-0.0253125
1.647,-0.013125,-0.0253125
1.648,-0.0121875,-0.0253125
1.649,-0.01125,-0.0253125
1.65,-0.0103125,-0.0253125
1.651,-0.01,-0.0253125
1.652,-0.0096875,-0.0253125
1.653,-0.0096875,-0.0253125
1.654,-0.01,-0.0253125
1.655,-0.0103125,-0.025
1.656,-0.010625,-0.025
1.657,-0.0115625,-0.025
1.658,-0.011875,-0.0246875
1.659,-0.0125,-0.0246875
1.66,-0.0125,-0.0246875
1.661,-0.0128125,-0.024375
1.662,-0.0125,-0.024375
1.663,-0.0121875,-0.0246875
1.664,-0.011875,-0.0246875
1.665,-0.0109375,-0.0246875
1.666,-0.01,-0.0246875
1.667,-0.00875,-0.025
1.668,-0.0078125,-0.025
1.669,-0.006875,-0.025
1.67,-0.0059375,-0.0253125
1.671,-0.005625,-0.0253125
1.672,-0.0053125,-0.0253125
1.673,-0.0053125,-0.0253125
1.674,-0.0053125,-0.0253125
1.675,-0.005625,-0.0253125
1.676,-0.00625,-0.025
1.677,-0.0065625,-0.025
1.678,-0.006875,-0.025
1.679,-0.0075,-0.0246875
1.68,-0.0078125,-0.0246875
1.681,-0.0078125,-0.024375
1.682,-0.0075,-0.024375
1.683,-0.0071875,-0.024375
1.684,-0.0065625,-0.024375
1.685,-0.005625,-0.024375
1.686,-0.0046875,-0.024375
1.687,-0.00375,-0.024375
1.688,-0.0028125,-0.024375
1.689,-0.001875,-0.024375
1.69,-0.00125,-0.024375
1.691,-0.000625,-0.024375
1.692,-0.0003125,-0.024375
1.693,-0.0003125,-0.024375
1.694,-0.000625,-0.024375
1.695,-0.0009375,-0.024375
1.696,-0.0015625,-0.0240625
1.697,-0.001875,-0.0240625
1.698,-0.0028125,-0.02375
1.699,-0.003125,-0.0234375
1.7,-0.00375,-0.0234375
1.701,-0.00375,-0.023125
1.702,-0.00375,-0.023125
1.703,-0.00375,-0.023125
1.704,-0.0034375,-0.0228125
1.705,-0.0028125,-0.0228125
1.706,-0.0025,-0.0228125
1.707,-0.001875,-0.0228125
1.708,-0.0009375,-0.0228125
1.709,-0.000625,-0.0228125
1.71,-0.0003125,-0.0228125
1.711,0,-0.0225
1.712,-0.0003125,-0.0225
1.713,-0.000625,-0.0225
1.714,-0.00125,-0.0221875
1.715,-0.0021875,-0.021875
1.716,-0.0028125,-0.0215625
1.717,-0.0040625,-0.0215625
1.718,-0.005,-0.02125
1.719,-0.005625,-0.0209375
1.72,-0.0065625,-0.0209375
1.721,-0.006875,-0.020625
1.722,-0.0075,-0.020625
1.723,-0.0075,-0.020625
1.724,-0.0075,-0.0203125
1.725,-0.0071875,-0.0203125
1.726,-0.006875,-0.0203125
1.727,-0.0065625,-0.020625
1.728,-0.0059375,-0.020625
1.729,-0.005625,-0.020625
1.73,-0.005625,-0.020625
1.731,-0.005625,-0.020625
1.732,-0.005625,-0.020625
1.733,-0.00625,-0.020625
1.734,-0.006875,-0.020625
1.735,-0.0075,-0.020625
1.736,-0.0084375,-0.0203125
1.737,-0.009375,-0.0203125
1.738,-0.0103125,-0.0203125
1.739,-0.01125,-0.0203125
1.74,-0.0115625,-0.0203125
1.741,-0.0121875,-0.0203125
1.742,-0.0121875,-0.0203125
1.743,-0.0121875,-0.0203125
1.744,-0.011875,-0.020625
1.745,-0.0115625,-0.020625
1.746,-0.01125,-0.0209375
1.747,-0.0103125,-0.02125
1.748,-0.01,-0.02125
1.749,-0.0090625,-0.02125
1.75,-0.00875,-0.0215625
1.751,-0.0084375,-0.021875
1.752,-0.0084375,-0.021875
1.753,-0.00875,-0.021875
1.754,-0.0090625,-0.0221875
1.755,-0.009375,-0.0221875
1.756,-0.01,-0.021875
1.757,-0.0109375,-0.021875
1.758,-0.0115625,-0.021875
1.759,-0.0121875,-0.021875
1.76,-0.0125,-0.021875
1.761,-0.0128125,-0.021875
1.762,-0.0128125,-0.0221875
1.763,-0.0125,-0.0221875
1.764,-0.0121875,-0.0221875
1.765,-0.01125,-0.0221875
1.766,-0.0109375,-0.0225
1.767,-0.01,-0.0225
1.768,-0.0090625,-0.0225
1.769,-0.00875,-0.0228125
1.77,-0.0078125,-0.0228125
1.771,-0.0075,-0.0228125
1.772,-0.0075,-0.0228125
1.773,-0.0075,-0.0228125
1.774,-0.0075,-0.0228125
1.775,-0.008125,-0.0228125
1.776,-0.0084375,-0.0225
1.777,-0.009375,-0.0225
1.778,-0.01,-0.0225
1.779,-0.0103125,-0.0221875
1.78,-0.0109375,-0.0221875
1.781,-0.0109375,-0.0221875
1.782,-0.0109375,-0.021875
1.783,-0.0109375,-0.021875
1.784,-0.010625,-0.021875
1.785,-0.0103125,-0.021875
1.786,-0.009375,-0.021875
1.787,-0.0090625,-0.0215625
1.788,-0.008125,-0.0215625
1.789,-0.0078125,-0.0215625
1.79,-0.0075,-0.0215625
1.791,-0.0071875,-0.0215625
1.792,-0.0071875,-0.0215625
1.793,-0.0075,-0.0215625
1.794,-0.0078125,-0.02125
1.795,-0.0084375,-0.02125
1.796,-0.009375,-0.0209375
1.797,-0.0103125,-0.0209375
1.798,-0.0109375,-0.020625
1.799,-0.011875,-0.020625
1.8,-0.0125,-0.020625
1.801,-0.013125,-0.0203125
1.802,-0.013125,-0.0203125
1.803,-0.0134375,-0.0203125
1.804,-0.0134375,-0.0203125
1.805,-0.013125,-0.0203125
1.806,-0.0128125,-0.0203125
1.807,-0.0125,-0.020625
1.808,-0.011875,-0.020625
1.809,-0.0115625,-0.020625
1.81,-0.0115625,-0.020625
1.811,-0.0115625,-0.020625
1.812,-0.0115625,-0.020625
1.813,-0.011875,-0.020625
1.814,-0.0128125,-0.020625
1.815,-0.0134375,-0.020625
1.816,-0.014375,-0.020625
1.817,-0.015,-0.020625
1.818,-0.01625,-0.0203125
1.819,-0.016875,-0.0203125
1.82,-0.0178125,-0.0203125
1.821,-0.018125,-0.0203125
1.822,-0.01875,-0.0203125
1.823,-0.01875,-0.0203125
1.824,-0.01875,-0.0203125
1.825,-0.01875,-0.0203125
1.826,-0.018125,-0.020625
1.827,-0.0178125,-0.020625
1.828,-0.0175,-0.0209375
1.829,-0.0171875,-0.0209375
1.83,-0.016875,-0.02125
1.831,-0.016875,-0.02125
1.832,-0.016875,-0.02125
1.833,-0.0171875,-0.0215625
1.834,-0.0175,-0.0215625
1.835,-0.018125,-0.0215625
1.836,-0.0190625,-0.0215625
1.837,-0.0196875,-0.021875
1.838,-0.020625,-0.021875
1.839,-0.0209375,-0.021875
1.84,-0.0215625,-0.021875
1.841,-0.0221875,-0.021875
1.842,-0.0221875,-0.0221875
1.843,-0.0221875,-0.0221875
1.844,-0.0215625,-0.0225
1.845,-0.02125,-0.0228125
1.846,-0.020625,-0.0228125
1.847,-0.0196875,-0.023125
1.848,-0.019375,-0.02375
1.849,-0.0184375,-0.02375
1.85,-0.0178125,-0.024375
1.851,-0.0175,-0.0246875
1.852,-0.0171875,-0.0246875
1.853,-0.0171875,-0.025
1.854,-0.0171875,-0.025
1.855,-0.0175,-0.0253125
1.856,-0.018125,-0.025625
1.857,-0.0184375,-0.025625
1.858,-0.01875,-0.0259375
1.859,-0.019375,-0.0259375
1.86,-0.019375,-0.02625
1.861,-0.019375,-0.02625
1.862,-0.019375,-0.0265625
1.863,-0.0190625,-0.026875
1.864,-0.0184375,-0.026875
1.865,-0.0175,-0.0275
1.866,-0.016875,-0.0275
1.867,-0.0159375,-0.0278125
1.868,-0.015,-0.028125
1.869,-0.014375,-0.0284375
1.87,-0.0134375,-0.02875
1.871,-0.0128125,-0.0290625
1.872,-0.0125,-0.0290625
1.873,-0.0125,-0.029375
1.874,-0.0125,-0.0296875
1.875,-0.0125,-0.03
1.876,-0.0128125,-0.03
1.877,-0.0134375,-0.03
1.878,-0.0134375,-0.0303125
1.879,-0.0140625,-0.0303125
1.88,-0.0140625,-0.0303125
1.881,-0.0140625,-0.030625
1.882,-0.0140625,-0.030625
1.883,-0.0134375,-0.0309375
1.884,-0.013125,-0.03125
1.885,-0.0125,-0.0315625
1.886,-0.0115625,-0.0315625
1.887,-0.010625,-0.0321875
1.888,-0.01,-0.0325
1.889,-0.0090625,-0.0325
1.89,-0.0084375,-0.0328125
1.891,-0.0078125,-0.033125
1.892,-0.0075,-0.033125
1.893,-0.0075,-0.0334375
1.894,-0.0075,-0.03375
1.895,-0.0078125,-0.03375
1.896,-0.008125,-0.0340625
1.897,-0.0084375,-0.0340625
1.898,-0.0090625,-0.0340625
1.899,-0.009375,-0.034375
1.9,-0.0096875,-0.034375
1.901,-0.0096875,-0.0346875
1.902,-0.0096875,-0.0346875
1.903,-0.0090625,-0.035
1.904,-0.00875,-0.0353125
1.905,-0.008125,-0.035625
1.906,-0.0071875,-0.035625
1.907,-0.006875,-0.03625
1.908,-0.0059375,-0.0365625
1.909,-0.0053125,-0.0365625
1.91,-0.0046875,-0.036875
1.911,-0.004375,-0.036875
1.912,-0.004375,-0.0371875
1.913,-0.004375,-0.0375
1.914,-0.0046875,-0.0375
1.915,-0.005,-0.0378125
1.916,-0.0053125,-0.0378125
1.917,-0.00625,-0.0378125
1.918,-0.0065625,-0.038125
1.919,-0.006875,-0.038125
1.92,-0.0075,-0.038125
1.921,-0.0075,-0.0384375
1.922,-0.0075,-0.0384375
1.923,-0.0075,-0.03875
1.924,-0.006875,-0.0390625
1.925,-0.00625,-0.0390625
1.926,-0.0059375,-0.039375
1.927,-0.0053125,-0.0396875
1.928,-0.0046875,-0.04
1.929,-0.004375,-0.0403125
1.93,-0.00375,-0.040625
1.931,-0.0034375,-0.0409375
1.932,-0.0034375,-0.04125
1.933,-0.00375,-0.04125
1.934,-0.0040625,-0.041875
1.935,-0.004375,-0.0421875
1.936,-0.005,-0.0421875
1.937,-0.0059375,-0.0425
1.938,-0.00625,-0.0428125
1.939,-0.006875,-0.043125
1.94,-0.0071875,-0.0434375
1.941,-0.0075,-0.04375
1.942,-0.0075,-0.0440625
1.943,-0.0071875,-0.044375
1.944,-0.006875,-0.045
1.945,-0.00625,-0.0453125
1.946,-0.0059375,-0.0459375
1.947,-0.005,-0.04625
1.948,-0.004375,-0.046875
1.949,-0.00375,-0.0475
1.95,-0.0034375,-0.0478125
1.951,-0.003125,-0.0484375
1.952,-0.0028125,-0.04875
1.953,-0.003125,-0.0490625
1.954,-0.0034375,-0.0496875
1.955,-0.00375,-0.05
1.956,-0.0040625,-0.0503125
1.957,-0.005,-0.050625
1.958,-0.0053125,-0.0509375
1.959,-0.0059375,-0.05125
1.96,-0.00625,-0.0515625
1.961,-0.0065625,-0.051875
1.962,-0.0065625,-0.0521875
1.963,-0.00625,-0.0525
1.964,-0.0059375,-0.0528125
1.965,-0.005625,-0.053125
1.966,-0.0046875,-0.05375
1.967,-0.004375,-0.0540625
1.968,-0.00375,-0.054375
1.969,-0.0034375,-0.0546875
1.97,-0.0028125,-0.0553125
1.971,-0.0028125,-0.0553125
1.972,-0.0028125,-0.0559375
1.973,-0.003125,-0.0559375
1.974,-0.0034375,-0.0565625
1.975,-0.00375,-0.0565625
1.976,-0.0046875,-0.056875
1.977,-0.005625,-0.0571875
1.978,-0.0059375,-0.0571875
1.979,-0.006875,-0.0578125
1.98,-0.0071875,-0.0578125
1.981,-0.0075,-0.058125
1.982,-0.0078125,-0.0584375
1.983,-0.0078125,-0.05875
1.984,-0.0075,-0.0590625
1.985,-0.0071875,-0.059375
1.986,-0.006875,-0.0596875
1.987,-0.00625,-0.06
1.988,-0.0059375,-0.060625
1.989,-0.005625,-0.060625
1.99,-0.0053125,-0.06125
1.991,-0.0053125,-0.06125
1.992,-0.0053125,-0.0615625
1.993,-0.005625,-0.061875
1.994,-0.0059375,-0.0621875
1.995,-0.00625,-0.0621875
1.996,-0.0071875,-0.0621875
1.997,-0.0078125,-0.0621875
1.998,-0.008125,-0.0625
1.999,-0.0090625,-0.0625
2,-0.009375,-0.0625
2.001,-0.0096875,-0.0625
2.002,-0.0096875,-0.0625
2.003,-0.0096875,-0.0625
2.004,-0.0090625,-0.0625
2.005,-0.00875,-0.0625
2.006,-0.008125,-0.0625
2.007,-0.0075,-0.0625
2.008,-0.006875,-0.0625
2.009,-0.00625,-0.0621875
2.01,-0.005625,-0.0621875
2.011,-0.0053125,-0.0621875
2.012,-0.0053125,-0.061875
2.013,-0.0053125,-0.061875
2.014,-0.0053125,-0.0615625
2.015,-0.005625,-0.06125
2.016,-0.0059375,-0.0609375
2.017,-0.00625,-0.060625
2.018,-0.006875,-0.0603125
2.019,-0.0071875,-0.06
2.02,-0.0071875,-0.059375
2.021,-0.0071875,-0.0590625
2.022,-0.0071875,-0.0590625
2.023,-0.006875,-0.05875
2.024,-0.00625,-0.0584375
2.025,-0.005625,-0.058125
2.026,-0.0046875,-0.058125
2.027,-0.0040625,-0.0578125
2.028,-0.003125,-0.0578125
2.029,-0.0025,-0.0578125
2.03,-0.001875,-0.0575
2.031,-0.0015625,-0.0575
2.032,-0.0009375,-0.0571875
2.033,-0.0009375,-0.056875
2.034,-0.0009375,-0.0565625
2.035,-0.00125,-0.0565625
2.036,-0.0015625,-0.05625
2.037,-0.001875,-0.0559375
2.038,-0.0021875,-0.0559375
2.039,-0.0025,-0.0553125
2.04,-0.0028125,-0.0553125
2.041,-0.0028125,-0.0553125
2.042,-0.0028125,-0.055
2.043,-0.0025,-0.055
2.044,-0.001875,-0.0546875
2.045,-0.0015625,-0.0546875
2.046,-0.000625,-0.0546875
2.047,-0.0003125,-0.0546875
2.048,0.000625,-0.0546875
2.049,0.0009375,-0.0546875
2.05,0.0015625,-0.0546875
2.051,0.001875,-0.0546875
2.052,0.001875,-0.054375
2.053,0.001875,-0.054375
2.054,0.00125,-0.054375
2.055,0.0009375,-0.0540625
2.056,0,-0.05375
2.057,-0.0003125,-0.05375
2.058,-0.00125,-0.05375
2.059,-0.001875,-0.0534375
2.06,-0.0021875,-0.053125
2.061,-0.0025,-0.053125
2.062,-0.0028125,-0.0528125
2.063,-0.003125,-0.0525
2.064,-0.0028125,-0.0525
2.065,-0.0028125,-0.0521875
2.066,-0.0025,-0.0521875
2.067,-0.0021875,-0.0521875
2.068,-0.001875,-0.051875
2.069,-0.0015625,-0.051875
2.07,-0.0015625,-0.0515625
2.071,-0.0015625,-0.05125
2.072,-0.001875,-0.0509375
2.073,-0.0021875,-0.0509375
2.074,-0.0028125,-0.0503125
2.075,-0.0034375,-0.0503125
2.076,-0.004375,-0.0496875
2.077,-0.0046875,-0.049375
2.078,-0.005625,-0.0490625
2.079,-0.00625,-0.04875
2.08,-0.006875,-0.0484375
2.081,-0.0071875,-0.048125
2.082,-0.0071875,-0.0478125
2.083,-0.0071875,-0.0478125
2.084,-0.0071875,-0.0475
2.085,-0.0065625,-0.0471875
2.086,-0.00625,-0.0471875
2.087,-0.0059375,-0.046875
2.088,-0.005,-0.046875
2.089,-0.0046875,-0.046875
2.09,-0.004375,-0.0465625
2.091,-0.0040625,-0.0465625
2.092,-0.0040625,-0.0465625
2.093,-0.0040625,-0.04625
2.094,-0.0040625,-0.04625
2.095,-0.0046875,-0.0459375
2.096,-0.005,-0.045625
2.097,-0.005625,-0.045625
2.098,-0.0059375,-0.0453125
2.099,-0.00625,-0.045
2.1,-0.006875,-0.0446875
2.101,-0.006875,-0.0446875
2.102,-0.006875,-0.0446875
2.103,-0.006875,-0.044375
2.104,-0.00625,-0.044375
2.105,-0.0059375,-0.044375
2.106,-0.0053125,-0.044375
2.107,-0.005,-0.044375
2.108,-0.0046875,-0.044375
2.109,-0.0040625,-0.0440625
2.11,-0.00375,-0.0440625
2.111,-0.00375,-0.0440625
2.112,-0.00375,-0.0440625
2.113,-0.00375,-0.0440625
2.114,-0.004375,-0.04375
2.115,-0.0046875,-0.04375
2.116,-0.005625,-0.04375
2.117,-0.0059375,-0.0434375
2.118,-0.006875,-0.043125
2.119,-0.0071875,-0.043125
2.12,-0.008125,-0.0428125
2.121,-0.0084375,-0.0428125
2.122,-0.00875,-0.0425
2.123,-0.00875,-0.0425
2.124,-0.00875,-0.0425
2.125,-0.00875,-0.0421875
2.126,-0.0084375,-0.0421875
2.127,-0.008125,-0.0421875
2.128,-0.008125,-0.0421875
2.129,-0.0078125,-0.0421875
2.13,-0.0078125,-0.041875
2.131,-0.008125,-0.041875
2.132,-0.0084375,-0.041875
2.133,-0.00875,-0.0415625
2.134,-0.009375,-0.04125
2.135,-0.0103125,-0.0409375
2.136,-0.01125,-0.0409375
2.137,-0.011875,-0.040625
2.138,-0.0128125,-0.0403125
2.139,-0.01375,-0.04
2.14,-0.0146875,-0.04
2.141,-0.0153125,-0.039375
2.142,-0.015625,-0.0390625
2.143,-0.0159375,-0.0390625
2.144,-0.0159375,-0.03875
2.145,-0.0159375,-0.0384375
2.146,-0.0159375,-0.038125
2.147,-0.015625,-0.038125
2.148,-0.015625,-0.0375
2.149,-0.0153125,-0.0375
2.15,-0.0153125,-0.036875
2.151,-0.0153125,-0.0365625
2.152,-0.015625,-0.03625
2.153,-0.0159375,-0.035625
2.154,-0.01625,-0.0353125
2.155,-0.0171875,-0.0346875
2.156,-0.0175,-0.034375
2.157,-0.0184375,-0.0334375
2.158,-0.01875,-0.033125
2.159,-0.0196875,-0.0321875
2.16,-0.02,-0.031875
2.161,-0.020625,-0.0309375
2.162,-0.020625,-0.030625
2.163,-0.020625,-0.03
2.164,-0.0203125,-0.029375
2.165,-0.02,-0.0290625
2.166,-0.0196875,-0.028125
2.167,-0.0190625,-0.0278125
2.168,-0.01875,-0.026875
2.169,-0.0184375,-0.0265625
2.17,-0.0178125,-0.025625
2.171,-0.0178125,-0.0253125
2.172,-0.0178125,-0.024375
2.173,-0.0178125,-0.02375
2.174,-0.018125,-0.023125
2.175,-0.0184375,-0.0221875
2.176,-0.019375,-0.0215625
2.177,-0.0196875,-0.0209375
2.178,-0.0203125,-0.02
2.179,-0.020625,-0.0190625
2.18,-0.02125,-0.01875
2.181,-0.0215625,-0.0178125
2.182,-0.0215625,-0.0175
2.183,-0.0215625,-0.0165625
2.184,-0.02125,-0.01625
2.185,-0.0209375,-0.0153125
2.186,-0.020625,-0.015
2.187,-0.02,-0.014375
2.188,-0.0196875,-0.0140625
2.189,-0.01875,-0.0134375
2.19,-0.0184375,-0.013125
2.191,-0.018125,-0.0125
2.192,-0.0178125,-0.0121875
2.193,-0.0178125,-0.011875
2.194,-0.0178125,-0.01125
2.195,-0.018125,-0.0109375
2.196,-0.0184375,-0.010625
2.197,-0.0184375,-0.0103125
2.198,-0.0190625,-0.0096875
2.199,-0.0190625,-0.0096875
2.2,-0.0190625,-0.0090625
2.201,-0.0190625,-0.0090625
2.202,-0.01875,-0.00875
2.203,-0.0184375,-0.0084375
2.204,-0.018125,-0.0084375
2.205,-0.0171875,-0.008125
2.206,-0.01625,-0.008125
2.207,-0.015625,-0.008125
2.208,-0.0146875,-0.008125
2.209,-0.0140625,-0.008125
2.21,-0.013125,-0.008125
2.211,-0.0125,-0.008125
2.212,-0.0121875,-0.008125
2.213,-0.011875,-0.008125
2.214,-0.011875,-0.0078125
2.215,-0.011875,-0.0078125
2.216,-0.0121875,-0.0078125
2.217,-0.0121875,-0.0078125
2.218,-0.0121875,-0.0078125
2.219,-0.0125,-0.0078125
2.22,-0.0125,-0.0078125
2.221,-0.0125,-0.0075
2.222,-0.0125,-0.0075
2.223,-0.011875,-0.0078125
2.224,-0.0115625,-0.0078125
2.225,-0.0109375,-0.0078125
2.226,-0.010625,-0.0078125
2.227,-0.0096875,-0.0078125
2.228,-0.00875,-0.008125
2.229,-0.008125,-0.008125
2.23,-0.0078125,-0.008125
2.231,-0.0075,-0.008125
2.232,-0.0071875,-0.008125
2.233,-0.0071875,-0.008125
2.234,-0.0071875,-0.008125
2.235,-0.0071875,-0.008125
2.236,-0.0075,-0.008125
2.237,-0.0078125,-0.008125
2.238,-0.008125,-0.008125
2.239,-0.0084375,-0.008125
2.24,-0.0084375,-0.0078125
2.241,-0.00875,-0.0078125
2.242,-0.00875,-0.0078125
2.243,-0.0084375,-0.0078125
2.244,-0.008125,-0.008125
2.245,-0.0075,-0.008125
2.246,-0.0071875,-0.008125
2.247,-0.006875,-0.008125
2.248,-0.00625,-0.008125
2.249,-0.0059375,-0.008125
2.25,-0.0053125,-0.008125
2.251,-0.0053125,-0.008125
2.252,-0.0053125,-0.008125
2.253,-0.0053125,-0.0078125
2.254,-0.005625,-0.0078125
2.255,-0.00625,-0.0078125
2.256,-0.0065625,-0.0078125
2.257,-0.0075,-0.0078125
2.258,-0.008125,-0.0075
2.259,-0.0084375,-0.0075
2.26,-0.00875,-0.0075
2.261,-0.009375,-0.0075
2.262,-0.009375,-0.0075
2.263,-0.009375,-0.0075
2.264,-0.009375,-0.0075
2.265,-0.009375,-0.0075
2.266,-0.00875,-0.0075
2.267,-0.00875,-0.0075
2.268,-0.008125,-0.0075
2.269,-0.0078125,-0.0075
2.27,-0.0075,-0.0078125
2.271,-0.0075,-0.0078125
2.272,-0.0075,-0.0078125
2.273,-0.0075,-0.0078125
2.274,-0.0078125,-0.0075
2.275,-0.0084375,-0.0075
2.276,-0.00875,-0.0075
2.277,-0.0090625,-0.0075
2.278,-0.0096875,-0.0075
2.279,-0.01,-0.0075
2.28,-0.0103125,-0.0075
2.281,-0.0103125,-0.0075
2.282,-0.0103125,-0.0075
2.283,-0.0103125,-0.0075
2.284,-0.0096875,-0.0075
2.285,-0.009375,-0.0078125
2.286,-0.0090625,-0.0078125
2.287,-0.0084375,-0.0078125
2.288,-0.0075,-0.008125
2.289,-0.0071875,-0.008125
2.29,-0.0065625,-0.008125
2.291,-0.00625,-0.008125
2.292,-0.00625,-0.008125
2.293,-0.00625,-0.008125
2.294,-0.00625,-0.008125
2.295,-0.0065625,-0.008125
2.296,-0.006875,-0.008125
2.297,-0.0075,-0.008125
2.298,-0.0078125,-0.008125
2.299,-0.008125,-0.008125
2.3,-0.0084375,-0.008125
2.301,-0.0084375,-0.008125
2.302,-0.0084375,-0.008125
2.303,-0.0084375,-0.008125
2.304,-0.0078125,-0.0084375
2.305,-0.0075,-0.0084375
2.306,-0.0071875,-0.00875
2.307,-0.00625,-0.00875
2.308,-0.0059375,-0.0090625
2.309,-0.005625,-0.0090625
2.31,-0.005,-0.0090625
2.311,-0.005,-0.009375
2.312,-0.005,-0.009375
2.313,-0.005,-0.009375
2.314,-0.0053125,-0.009375
2.315,-0.005625,-0.009375
2.316,-0.0059375,-0.009375
2.317,-0.006875,-0.009375
2.318,-0.0075,-0.009375
2.319,-0.0078125,-0.009375
2.32,-0.008125,-0.009375
2.321,-0.0084375,-0.009375
2.322,-0.0084375,-0.009375
2.323,-0.0084375,-0.009375
2.324,-0.0084375,-0.0096875
2.325,-0.008125,-0.0096875
2.326,-0.0078125,-0.0096875
2.327,-0.0071875,-0.0096875
2.328,-0.006875,-0.009375
2.329,-0.0065625,-0.009375
2.33,-0.00625,-0.009375
2.331,-0.00625,-0.009375
2.332,-0.0065625,-0.009375
2.333,-0.006875,-0.0090625
2.334,-0.0071875,-0.0090625
2.335,-0.008125,-0.00875
2.336,-0.0084375,-0.0084375
2.337,-0.009375,-0.0084375
2.338,-0.01,-0.0078125
2.339,-0.0109375,-0.0078125
2.34,-0.01125,-0.0075
2.341,-0.0115625,-0.0071875
2.342,-0.011875,-0.006875
2.343,-0.011875,-0.006875
2.344,-0.0115625,-0.006875
2.345,-0.01125,-0.0065625
2.346,-0.010625,-0.0065625
2.347,-0.0103125,-0.0065625
2.348,-0.009375,-0.00625
2.349,-0.00875,-0.00625
2.35,-0.0084375,-0.00625
2.351,-0.008125,-0.00625
2.352,-0.0078125,-0.00625
2.353,-0.0075,-0.00625
2.354,-0.0078125,-0.0059375
2.355,-0.0078125,-0.0059375
2.356,-0.008125,-0.005625
2.357,-0.0084375,-0.005625
2.358,-0.00875,-0.005625
2.359,-0.0090625,-0.0053125
2.36,-0.0090625,-0.0053125
2.361,-0.0090625,-0.0053125
2.362,-0.0090625,-0.0053125
2.363,-0.00875,-0.0053125
2.364,-0.008125,-0.005625
2.365,-0.0078125,-0.005625
2.366,-0.006875,-0.005625
2.367,-0.0059375,-0.0059375
2.368,-0.005625,-0.0059375
2.369,-0.0046875,-0.00625
2.37,-0.0040625,-0.00625
2.371,-0.00375,-0.0065625
2.372,-0.0034375,-0.0065625
2.373,-0.0034375,-0.006875
2.374,-0.0034375,-0.006875
2.375,-0.00375,-0.006875
2.376,-0.0040625,-0.0071875
2.377,-0.0046875,-0.0071875
2.378,-0.005,-0.0071875
2.379,-0.0053125,-0.0071875
2.38,-0.0059375,-0.0075
2.381,-0.00625,-0.0075
2.382,-0.0065625,-0.0075
2.383,-0.0065625,-0.0078125
2.384,-0.00625,-0.008125
2.385,-0.00625,-0.0084375
2.386,-0.0059375,-0.0084375
2.387,-0.005625,-0.0090625
2.388,-0.0053125,-0.0090625
2.389,-0.005,-0.0096875
2.39,-0.005,-0.0096875
2.391,-0.005,-0.0103125
2.392,-0.005,-0.010625
2.393,-0.0053125,-0.0109375
2.394,-0.005625,-0.01125
2.395,-0.00625,-0.0115625
2.396,-0.0071875,-0.011875
2.397,-0.0078125,-0.011875
2.398,-0.00875,-0.0125
2.399,-0.0090625,-0.0125
2.4,-0.01,-0.013125
2.401,-0.0103125,-0.013125
2.402,-0.010625,-0.01375
2.403,-0.0109375,-0.0140625
2.404,-0.0109375,-0.014375
2.405,-0.010625,-0.0146875
2.406,-0.0103125,-0.0153125
2.407,-0.01,-0.015625
2.408,-0.0096875,-0.0159375
2.409,-0.009375,-0.0165625
2.41,-0.0090625,-0.016875
2.411,-0.0090625,-0.0171875
2.412,-0.009375,-0.0178125
2.413,-0.009375,-0.0178125
2.414,-0.01,-0.0184375
2.415,-0.0103125,-0.01875
2.416,-0.01125,-0.01875
2.417,-0.0115625,-0.0190625
2.418,-0.0125,-0.019375
2.419,-0.0128125,-0.019375
2.42,-0.0134375,-0.0196875
2.421,-0.01375,-0.0196875
2.422,-0.01375,-0.02
2.423,-0.01375,-0.0203125
2.424,-0.01375,-0.020625
2.425,-0.0134375,-0.020625
2.426,-0.013125,-0.020625
2.427,-0.0128125,-0.0209375
2.428,-0.0125,-0.02125
2.429,-0.011875,-0.0215625
2.43,-0.011875,-0.0215625
2.431,-0.011875,-0.0215625
2.432,-0.011875,-0.021875
2.433,-0.0121875,-0.021875
2.434,-0.0125,-0.021875
2.435,-0.0134375,-0.021875
2.436,-0.01375,-0.021875
2.437,-0.014375,-0.021875
2.438,-0.0153125,-0.021875
2.439,-0.015625,-0.021875
2.44,-0.0165625,-0.021875
2.441,-0.016875,-0.021875
2.442,-0.0171875,-0.0215625
2.443,-0.0171875,-0.0215625
2.444,-0.0171875,-0.0215625
2.445,-0.016875,-0.0215625
2.446,-0.0165625,-0.0215625
2.447,-0.01625,-0.0215625
2.448,-0.015625,-0.0215625
2.449,-0.0153125,-0.0215625
2.45,-0.015,-0.0215625
2.451,-0.0146875,-0.0215625
2.452,-0.0146875,-0.02125
2.453,-0.015,-0.02125
2.454,-0.015,-0.0209375
2.455,-0.015625,-0.020625
2.456,-0.0159375,-0.020625
2.457,-0.01625,-0.0203125
2.458,-0.016875,-0.02
2.459,-0.0171875,-0.0196875
2.46,-0.0175,-0.019375
2.461,-0.0175,-0.0190625
2.462,-0.0175,-0.0190625
2.463,-0.0175,-0.0184375
2.464,-0.0171875,-0.018125
2.465,-0.0165625,-0.018125
2.466,-0.01625,-0.0178125
2.467,-0.0153125,-0.0175
2.468,-0.0146875,-0.0175
2.469,-0.014375,-0.0171875
2.47,-0.01375,-0.016875
2.471,-0.0134375,-0.016875
2.472,-0.013125,-0.01625
2.473,-0.013125,-0.0159375
2.474,-0.013125,-0.0159375
2.475,-0.0134375,-0.0153125
2.476,-0.01375,-0.0153125
2.477,-0.0140625,-0.0146875
2.478,-0.014375,-0.014375
2.479,-0.0146875,-0.0140625
2.48,-0.015,-0.01375
2.481,-0.015,-0.0134375
2.482,-0.015,-0.0134375
2.483,-0.015,-0.013125
2.484,-0.014375,-0.0128125
2.485,-0.0140625,-0.0128125
2.486,-0.0134375,-0.0125
2.487,-0.013125,-0.0125
2.488,-0.0121875,-0.0125
2.489,-0.0115625,-0.0121875
2.49,-0.01125,-0.0121875
2.491,-0.0109375,-0.0121875
2.492,-0.010625,-0.0121875
2.493,-0.010625,-0.0121875
2.494,-0.010625,-0.011875
2.495,-0.0109375,-0.011875
2.496,-0.01125,-0.011875
2.497,-0.0115625,-0.011875
2.498,-0.011875,-0.011875
2.499,-0.0121875,-0.011875
2.5,-0.0125,-0.011875
2.501,-0.0125,-0.011875
2.502,-0.0121875,-0.011875
2.503,-0.011875,-0.011875
2.504,-0.0115625,-0.0121875
2.505,-0.01125,-0.0121875
2.506,-0.0103125,-0.0125
2.507,-0.01,-0.0125
2.508,-0.0090625,-0.0128125
2.509,-0.00875,-0.0128125
2.51,-0.0084375,-0.013125
2.511,-0.0078125,-0.013125
2.512,-0.0078125,-0.0134375
2.513,-0.0078125,-0.0134375
2.514,-0.0078125,-0.0134375
2.515,-0.008125,-0.01375
2.516,-0.0084375,-0.01375
2.517,-0.00875,-0.01375
2.518,-0.009375,-0.01375
2.519,-0.009375,-0.01375
2.52,-0.01,-0.01375
2.521,-0.01,-0.01375
2.522,-0.01,-0.0140625
2.523,-0.01,-0.0140625
2.524,-0.01,-0.0140625
2.525,-0.009375,-0.014375
2.526,-0.0090625,-0.014375
2.527,-0.00875,-0.0146875
2.528,-0.008125,-0.0146875
2.529,-0.008125,-0.015
2.53,-0.0075,-0.0153125
2.531,-0.0075,-0.0153125
2.532,-0.0075,-0.015625
2.533,-0.0078125,-0.015625
2.534,-0.008125,-0.015625
2.535,-0.00875,-0.0159375
2.536,-0.0090625,-0.0159375
2.537,-0.0096875,-0.0159375
2.538,-0.010625,-0.01625
2.539,-0.0109375,-0.01625
2.54,-0.0115625,-0.01625
2.541,-0.011875,-0.0165625
2.542,-0.011875,-0.0165625
2.543,-0.011875,-0.0165625
2.544,-0.011875,-0.016875
2.545,-0.011875,-0.016875
2.546,-0.01125,-0.0171875
2.547,-0.0109375,-0.0175
2.548,-0.010625,-0.0175
2.549,-0.01,-0.0178125
2.55,-0.01,-0.018125
2.551,-0.0096875,-0.018125
2.552,-0.0096875,-0.018125
2.553,-0.0096875,-0.0184375
2.554,-0.01,-0.0184375
2.555,-0.010625,-0.0184375
2.556,-0.0109375,-0.0184375
2.557,-0.0115625,-0.0184375
2.558,-0.011875,-0.01875
2.559,-0.0121875,-0.01875
2.56,-0.0128125,-0.01875
2.561,-0.013125,-0.01875
2.562,-0.013125,-0.01875
2.563,-0.013125,-0.01875
2.564,-0.0128125,-0.01875
2.565,-0.0125,-0.01875
2.566,-0.0121875,-0.01875
2.567,-0.011875,-0.0190625
2.568,-0.01125,-0.0190625
2.569,-0.01125,-0.0190625
2.57,-0.0109375,-0.019375
2.571,-0.010625,-0.019375
2.572,-0.010625,-0.019375
2.573,-0.0109375,-0.019375
2.574,-0.01125,-0.019375
2.575,-0.011875,-0.019375
2.576,-0.0121875,-0.019375
2.577,-0.013125,-0.019375
2.578,-0.0134375,-0.019375
2.579,-0.0140625,-0.019375
2.58,-0.014375,-0.019375
2.581,-0.015,-0.019375
2.582,-0.015,-0.019375
2.583,-0.015,-0.019375
2.584,-0.015,-0.019375
2.585,-0.0146875,-0.0196875
2.586,-0.0140625,-0.0196875
2.587,-0.01375,-0.02
2.588,-0.0134375,-0.02
2.589,-0.0128125,-0.02
2.59,-0.0125,-0.0203125
2.591,-0.0121875,-0.0203125
2.592,-0.0121875,-0.0203125
2.593,-0.0121875,-0.0203125
2.594,-0.0121875,-0.0203125
2.595,-0.0125,-0.0203125
2.596,-0.0128125,-0.0203125
2.597,-0.013125,-0.0203125
2.598,-0.0134375,-0.0203125
2.599,-0.01375,-0.0203125
2.6,-0.01375,-0.0203125
2.601,-0.01375,-0.0203125
2.602,-0.01375,-0.0203125
2.603,-0.0134375,-0.0203125
2.604,-0.013125,-0.020625
2.605,-0.0121875,-0.020625
2.606,-0.011875,-0.020625
2.607,-0.0109375,-0.020625
2.608,-0.010625,-0.020625
2.609,-0.0096875,-0.0209375
2.61,-0.009375,-0.0209375
2.611,-0.0090625,-0.0209375
2.612,-0.0084375,-0.0209375
2.613,-0.0084375,-0.0209375
2.614,-0.0084375,-0.0209375
2.615,-0.0084375,-0.0209375
2.616,-0.0090625,-0.0209375
2.617,-0.009375,-0.020625
2.618,-0.0096875,-0.020625
2.619,-0.0096875,-0.020625
2.62,-0.01,-0.0203125
2.621,-0.01,-0.0203125
2.622,-0.01,-0.0203125
2.623,-0.01,-0.0203125
2.624,-0.009375,-0.0203125
2.625,-0.0090625,-0.0203125
2.626,-0.0084375,-0.0203125
2.627,-0.008125,-0.02
2.628,-0.0071875,-0.02
2.629,-0.0065625,-0.02
2.63,-0.00625,-0.02
2.631,-0.0059375,-0.02
2.632,-0.005625,-0.02
2.633,-0.005625,-0.02
2.634,-0.005625,-0.0196875
2.635,-0.005625,-0.0196875
2.636,-0.00625,-0.019375
2.637,-0.0065625,-0.019375
2.638,-0.006875,-0.0190625
2.639,-0.006875,-0.0190625
2.64,-0.0071875,-0.01875
2.641,-0.0071875,-0.01875
2.642,-0.0071875,-0.01875
2.643,-0.006875,-0.0184375
2.644,-0.0065625,-0.0184375
2.645,-0.00625,-0.0184375
2.646,-0.005625,-0.0184375
2.647,-0.0053125,-0.0184375
2.648,-0.004375,-0.0184375
2.649,-0.0040625,-0.0184375
2.65,-0.0034375,-0.0184375
2.651,-0.003125,-0.0184375
2.652,-0.003125,-0.0184375
2.653,-0.003125,-0.0184375
2.654,-0.003125,-0.0184375
2.655,-0.003125,-0.01875
2.656,-0.00375,-0.01875
2.657,-0.0040625,-0.01875
2.658,-0.004375,-0.01875
2.659,-0.005,-0.0190625
2.66,-0.005,-0.0190625
2.661,-0.0053125,-0.0190625
2.662,-0.0053125,-0.019375
2.663,-0.0053125,-0.019375
2.664,-0.005,-0.0196875
2.665,-0.0046875,-0.0203125
2.666,-0.0040625,-0.0203125
2.667,-0.00375,-0.0209375
2.668,-0.003125,-0.0209375
2.669,-0.0028125,-0.02125
2.67,-0.0021875,-0.021875
2.671,-0.001875,-0.021875
2.672,-0.001875,-0.0225
2.673,-0.001875,-0.0228125
2.674,-0.0021875,-0.0228125
2.675,-0.0025,-0.023125
2.676,-0.0028125,-0.0234375
2.677,-0.0034375,-0.0234375
2.678,-0.00375,-0.02375
2.679,-0.0040625,-0.0240625
2.68,-0.0046875,-0.0240625
2.681,-0.0046875,-0.0240625
2.682,-0.0046875,-0.024375
2.683,-0.0046875,-0.0246875
2.684,-0.0046875,-0.0246875
2.685,-0.004375,-0.025
2.686,-0.0040625,-0.0253125
2.687,-0.0034375,-0.0253125
2.688,-0.003125,-0.025625
2.689,-0.0028125,-0.025625
2.69,-0.0025,-0.0259375
2.691,-0.0021875,-0.0259375
2.692,-0.0021875,-0.0259375
2.693,-0.0025,-0.02625
2.694,-0.0025,-0.02625
2.695,-0.003125,-0.02625
2.696,-0.0034375,-0.0259375
2.697,-0.00375,-0.0259375
2.698,-0.0046875,-0.0259375
2.699,-0.005,-0.0259375
2.7,-0.0053125,-0.0259375
2.701,-0.005625,-0.0259375
2.702,-0.0059375,-0.0259375
2.703,-0.0059375,-0.0259375
2.704,-0.005625,-0.0259375
2.705,-0.005625,-0.0259375
2.706,-0.005,-0.0259375
2.707,-0.005,-0.0259375
2.708,-0.004375,-0.0259375
2.709,-0.0040625,-0.02625
2.71,-0.00375,-0.02625
2.711,-0.00375,-0.02625
2.712,-0.00375,-0.02625
2.713,-0.00375,-0.0259375
2.714,-0.0040625,-0.0259375
2.715,-0.004375,-0.0259375
2.716,-0.0046875,-0.0259375
2.717,-0.0053125,-0.0259375
2.718,-0.0059375,-0.025625
2.719,-0.00625,-0.025625
2.72,-0.006875,-0.025625
2.721,-0.0071875,-0.0253125
2.722,-0.0071875,-0.0253125
2.723,-0.0071875,-0.0253125
2.724,-0.0071875,-0.025
2.725,-0.0071875,-0.025
2.726,-0.0065625,-0.025
2.727,-0.00625,-0.025
2.728,-0.0059375,-0.025
2.729,-0.0059375,-0.025
2.73,-0.005625,-0.0246875
2.731,-0.005625,-0.0246875
2.732,-0.005625,-0.0246875
2.733,-0.005625,-0.024375
2.734,-0.0059375,-0.024375
2.735,-0.0065625,-0.024375
2.736,-0.006875,-0.0240625
2.737,-0.0078125,-0.02375
2.738,-0.008125,-0.02375
2.739,-0.00875,-0.0234375
2.74,-0.0090625,-0.0234375
2.741,-0.0096875,-0.023125
2.742,-0.0096875,-0.023125
2.743,-0.01,-0.023125
2.744,-0.01,-0.0228125
2.745,-0.0096875,-0.0228125
2.746,-0.009375,-0.0228125
2.747,-0.009375,-0.0228125
2.748,-0.0090625,-0.0228125
2.749,-0.00875,-0.0228125
2.75,-0.00875,-0.0228125
2.751,-0.0084375,-0.0225
2.752,-0.0084375,-0.0225
2.753,-0.00875,-0.0225
2.754,-0.0090625,-0.0225
2.755,-0.009375,-0.0221875
2.756,-0.0096875,-0.0221875
2.757,-0.0103125,-0.0221875
2.758,-0.010625,-0.021875
2.759,-0.01125,-0.021875
2.76,-0.0115625,-0.021875
2.761,-0.0115625,-0.0215625
2.762,-0.0115625,-0.0215625
2.763,-0.0115625,-0.0215625
2.764,-0.01125,-0.0215625
2.765,-0.0109375,-0.0215625
2.766,-0.0103125,-0.0215625
2.767,-0.01,-0.0215625
2.768,-0.0096875,-0.0215625
2.769,-0.00875,-0.0215625
2.77,-0.0084375,-0.0215625
2.771,-0.008125,-0.0215625
2.772,-0.0078125,-0.0215625
2.773,-0.0075,-0.0215625
2.774,-0.0075,-0.0215625
2.775,-0.0078125,-0.02125
2.776,-0.0078125,-0.02125
2.777,-0.0078125,-0.02125
2.778,-0.008125,-0.02125
2.779,-0.0084375,-0.02125
2.78,-0.0084375,-0.02125
2.781,-0.0084375,-0.02125
2.782,-0.0084375,-0.02125
2.783,-0.008125,-0.02125
2.784,-0.0078125,-0.02125
2.785,-0.0071875,-0.02125
2.786,-0.006875,-0.02125
2.787,-0.0065625,-0.0215625
2.788,-0.0059375,-0.0215625
2.789,-0.0053125,-0.021875
2.79,-0.0053125,-0.021875
2.791,-0.0046875,-0.021875
2.792,-0.0046875,-0.0221875
2.793,-0.0046875,-0.0221875
2.794,-0.005,-0.0225
2.795,-0.0053125,-0.0225
2.796,-0.005625,-0.0228125
2.797,-0.0059375,-0.0228125
2.798,-0.0065625,-0.0228125
2.799,-0.006875,-0.023125
2.8,-0.0075,-0.023125
2.801,-0.0078125,-0.023125
2.802,-0.0078125,-0.0234375
2.803,-0.0078125,-0.0234375
2.804,-0.0078125,-0.02375
2.805,-0.0078125,-0.0240625
2.806,-0.0078125,-0.024375
2.807,-0.0071875,-0.024375
2.808,-0.0071875,-0.025
2.809,-0.006875,-0.0253125
2.81,-0.006875,-0.0253125
2.811,-0.006875,-0.0259375
2.812,-0.006875,-0.0259375
2.813,-0.0071875,-0.02625
2.814,-0.0075,-0.0265625
2.815,-0.0078125,-0.0265625
2.816,-0.0084375,-0.026875
2.817,-0.00875,-0.0271875
2.818,-0.0096875,-0.0275
2.819,-0.01,-0.0275
2.82,-0.0103125,-0.0278125
2.821,-0.0109375,-0.028125
2.822,-0.01125,-0.028125
2.823,-0.01125,-0.0284375
2.824,-0.01125,-0.02875
2.825,-0.01125,-0.02875
2.826,-0.01125,-0.0290625
2.827,-0.0109375,-0.029375
2.828,-0.0109375,-0.029375
2.829,-0.0109375,-0.0296875
2.83,-0.01125,-0.03
2.831,-0.01125,-0.03
2.832,-0.0115625,-0.0303125
2.833,-0.011875,-0.0303125
2.834,-0.0121875,-0.0303125
2.835,-0.0128125,-0.030625
2.836,-0.01375,-0.030625
2.837,-0.0140625,-0.030625
2.838,-0.015,-0.030625
2.839,-0.015625,-0.030625
2.84,-0.01625,-0.0309375
2.841,-0.0165625,-0.0309375
2.842,-0.0171875,-0.0309375
2.843,-0.0175,-0.0309375
2.844,-0.0175,-0.0309375
2.845,-0.0175,-0.0309375
2.846,-0.0175,-0.03125
2.847,-0.0171875,-0.03125
2.848,-0.0171875,-0.03125
2.849,-0.0171875,-0.03125
2.85,-0.016875,-0.03125
2.851,-0.016875,-0.0315625
2.852,-0.0171875,-0.0315625
2.853,-0.0171875,-0.03125
2.854,-0.0175,-0.03125
2.855,-0.0178125,-0.03125
2.856,-0.018125,-0.03125
2.857,-0.0184375,-0.03125
2.858,-0.01875,-0.03125
2.859,-0.0190625,-0.0309375
2.86,-0.0190625,-0.0309375
2.861,-0.0190625,-0.0309375
2.862,-0.0190625,-0.0309375
2.863,-0.01875,-0.030625
2.864,-0.0184375,-0.030625
2.865,-0.0178125,-0.030625
2.866,-0.0175,-0.0303125
2.867,-0.016875,-0.0303125
2.868,-0.01625,-0.0303125
2.869,-0.015625,-0.03
2.87,-0.0153125,-0.03
2.871,-0.0146875,-0.03
2.872,-0.014375,-0.0296875
2.873,-0.014375,-0.029375
2.874,-0.0140625,-0.029375
2.875,-0.0140625,-0.0290625
2.876,-0.014375,-0.02875
2.877,-0.014375,-0.02875
2.878,-0.0146875,-0.028125
2.879,-0.0146875,-0.028125
2.88,-0.0146875,-0.0278125
2.881,-0.0146875,-0.0275
2.882,-0.0146875,-0.0271875
2.883,-0.014375,-0.0271875
2.884,-0.0140625,-0.026875
2.885,-0.0140625,-0.026875
2.886,-0.0134375,-0.0265625
2.887,-0.013125,-0.0265625
2.888,-0.0128125,-0.0265625
2.889,-0.0125,-0.02625
2.89,-0.0121875,-0.02625
2.891,-0.0121875,-0.02625
2.892,-0.0121875,-0.0259375
2.893,-0.0121875,-0.0259375
2.894,-0.0121875,-0.025625
2.895,-0.0128125,-0.025625
2.896,-0.013125,-0.025625
2.897,-0.0134375,-0.0253125
2.898,-0.0140625,-0.0253125
2.899,-0.014375,-0.025
2.9,-0.0146875,-0.025
2.901,-0.015,-0.0246875
2.902,-0.0153125,-0.0246875
2.903,-0.0153125,-0.0246875
2.904,-0.0153125,-0.0246875
2.905,-0.0153125,-0.0246875
2.906,-0.015,-0.0246875
2.907,-0.015,-0.0246875
2.908,-0.0146875,-0.0246875
2.909,-0.0146875,-0.025
2.91,-0.014375,-0.025
2.911,-0.014375,-0.025
2.912,-0.0146875,-0.025
2.913,-0.0146875,-0.025
2.914,-0.015,-0.025
2.915,-0.0153125,-0.025
2.916,-0.015625,-0.025
2.917,-0.01625,-0.025
2.918,-0.0165625,-0.025
2.919,-0.016875,-0.025
2.92,-0.0171875,-0.025
2.921,-0.0171875,-0.0253125
2.922,-0.0171875,-0.0253125
2.923,-0.0171875,-0.0253125
2.924,-0.0171875,-0.025625
2.925,-0.016875,-0.025625
2.926,-0.0165625,-0.0259375
2.927,-0.0159375,-0.0259375
2.928,-0.015625,-0.02625
2.929,-0.0153125,-0.0265625
2.93,-0.015,-0.0265625
2.931,-0.0146875,-0.026875
2.932,-0.014375,-0.026875
2.933,-0.014375,-0.0271875
2.934,-0.0146875,-0.0275
2.935,-0.0146875,-0.0275
2.936,-0.015,-0.0275
2.937,-0.0153125,-0.0278125
2.938,-0.0153125,-0.0278125
2.939,-0.015625,-0.028125
2.94,-0.015625,-0.028125
2.941,-0.015625,-0.0284375
2.942,-0.015625,-0.02875
2.943,-0.015625,-0.02875
2.944,-0.0153125,-0.0290625
2.945,-0.0146875,-0.0290625
2.946,-0.014375,-0.029375
2.947,-0.0140625,-0.03
2.948,-0.0134375,-0.03
2.949,-0.0128125,-0.030625
2.95,-0.0125,-0.030625
2.951,-0.0121875,-0.0309375
2.952,-0.011875,-0.0315625
2.953,-0.0115625,-0.0315625
2.954,-0.0115625,-0.031875
2.955,-0.0115625,-0.0321875
2.956,-0.0115625,-0.0325
2.957,-0.0115625,-0.0328125
2.958,-0.011875,-0.0328125
2.959,-0.011875,-0.033125
2.96,-0.0115625,-0.0334375
2.961,-0.0115625,-0.0334375
2.962,-0.0115625,-0.0340625
2.963,-0.0109375,-0.0340625
2.964,-0.010625,-0.034375
2.965,-0.0103125,-0.0346875
2.966,-0.0096875,-0.035
2.967,-0.00875,-0.035
2.968,-0.0084375,-0.035625
2.969,-0.0078125,-0.035625
2.97,-0.0075,-0.0359375
2.971,-0.006875,-0.03625
2.972,-0.0065625,-0.03625
2.973,-0.0065625,-0.0365625
2.974,-0.0065625,-0.0365625
2.975,-0.0065625,-0.0365625
2.976,-0.006875,-0.036875
2.977,-0.006875,-0.036875
2.978,-0.0071875,-0.036875
2.979,-0.0071875,-0.036875
2.98,-0.0071875,-0.036875
2.981,-0.0071875,-0.036875
2.982,-0.0071875,-0.036875
2.983,-0.0071875,-0.036875
2.984,-0.006875,-0.036875
2.985,-0.0065625,-0.0371875
2.986,-0.00625,-0.0371875
2.987,-0.005625,-0.0371875
2.988,-0.0053125,-0.0371875
2.989,-0.0046875,-0.0371875
2.99,-0.004375,-0.0375
2.991,-0.0040625,-0.0375
2.992,-0.00375,-0.0375
2.993,-0.0034375,-0.0375
2.994,-0.0034375,-0.0375
2.995,-0.0034375,-0.0375
2.996,-0.00375,-0.0375
2.997,-0.00375,-0.0375
2.998,-0.00375,-0.0375
2.999,-0.00375,-0.0371875
3,-0.00375,-0.0371875
3.001,-0.00375,-0.0371875
3.002,-0.003125,-0.0371875
3.003,-0.003125,-0.0371875
3.004,-0.0025,-0.0371875
3.005,-0.0021875,-0.0371875
3.006,-0.00125,-0.0371875
3.007,-0.0009375,-0.0375
3.008,-0.0003125,-0.0375
3.009,0.000625,-0.0375
3.01,0.0009375,-0.0375
3.011,0.00125,-0.0375
3.012,0.001875,-0.0371875
3.013,0.0021875,-0.0371875
3.014,0.0021875,-0.0371875
3.015,0.0021875,-0.0371875
3.016,0.0021875,-0.0371875
3.017,0.001875,-0.0371875
3.018,0.001875,-0.0371875
3.019,0.001875,-0.0371875
3.02,0.0015625,-0.0371875
3.021,0.0015625,-0.036875
3.022,0.0015625,-0.036875
3.023,0.001875,-0.036875
3.024,0.001875,-0.036875
3.025,0.001875,-0.036875
3.026,0.0025,-0.036875
3.027,0.0028125,-0.036875
3.028,0.0028125,-0.0365625
3.029,0.003125,-0.0365625
3.03,0.0034375,-0.0365625
3.031,0.0034375,-0.0365625
3.032,0.0034375,-0.0365625
3.033,0.0034375,-0.03625
3.034,0.003125,-0.03625
3.035,0.0028125,-0.0359375
3.036,0.0021875,-0.0359375
3.037,0.001875,-0.0359375
3.038,0.00125,-0.035625
3.039,0.0009375,-0.035625
3.04,0.000625,-0.035625
3.041,0,-0.0353125
3.042,0,-0.0353125
3.043,-0.0003125,-0.0353125
3.044,-0.0003125,-0.0353125
3.045,-0.0003125,-0.0353125
3.046,-0.0003125,-0.0353125
3.047,-0.0003125,-0.0353125
3.048,-0.0003125,-0.0353125
3.049,-0.0003125,-0.035625
3.05,-0.0003125,-0.035625
3.051,-0.0003125,-0.035625
3.052,-0.0003125,-0.0359375
3.053,-0.0009375,-0.0359375
3.054,-0.0009375,-0.0359375
3.055,-0.0015625,-0.03625
3.056,-0.001875,-0.03625
3.057,-0.0025,-0.03625
3.058,-0.0028125,-0.0365625
3.059,-0.0034375,-0.0365625
3.06,-0.00375,-0.036875
3.061,-0.0040625,-0.0371875
3.062,-0.0040625,-0.0375
3.063,-0.004375,-0.0378125
3.064,-0.004375,-0.038125
3.065,-0.0040625,-0.0384375
3.066,-0.0040625,-0.03875
3.067,-0.00375,-0.039375
3.068,-0.00375,-0.0396875
3.069,-0.0034375,-0.04
3.07,-0.003125,-0.0403125
3.071,-0.003125,-0.0409375
3.072,-0.003125,-0.04125
3.073,-0.0034375,-0.0415625
3.074,-0.0034375,-0.041875
3.075,-0.00375,-0.0421875
3.076,-0.0040625,-0.0425
3.077,-0.004375,-0.0428125
3.078,-0.005,-0.043125
3.079,-0.0053125,-0.0434375
3.08,-0.005625,-0.04375
3.081,-0.0059375,-0.0440625
3.082,-0.0059375,-0.0440625
3.083,-0.0059375,-0.044375
3.084,-0.0059375,-0.045
3.085,-0.005625,-0.045
3.086,-0.005625,-0.045625
3.087,-0.005625,-0.045625
3.088,-0.005,-0.0459375
3.089,-0.005,-0.0465625
3.09,-0.005,-0.0465625
3.091,-0.0046875,-0.046875
3.092,-0.005,-0.0471875
3.093,-0.005,-0.0475
3.094,-0.005,-0.0475
3.095,-0.005625,-0.0478125
3.096,-0.005625,-0.0478125
3.097,-0.00625,-0.048125
3.098,-0.0065625,-0.048125
3.099,-0.006875,-0.048125
3.1,-0.0071875,-0.0484375
3.101,-0.0075,-0.0484375
3.102,-0.0075,-0.0484375
3.103,-0.0075,-0.04875
3.104,-0.0071875,-0.04875
3.105,-0.0071875,-0.0490625
3.106,-0.0071875,-0.0490625
3.107,-0.006875,-0.049375
3.108,-0.0065625,-0.0496875
3.109,-0.00625,-0.0496875
3.11,-0.00625,-0.05
3.111,-0.00625,-0.05
3.112,-0.00625,-0.0503125
3.113,-0.00625,-0.0503125
3.114,-0.00625,-0.050625
3.115,-0.0065625,-0.050625
3.116,-0.0071875,-0.050625
3.117,-0.0075,-0.0509375
3.118,-0.0078125,-0.0509375
3.119,-0.008125,-0.0509375
3.12,-0.0084375,-0.0509375
3.121,-0.00875,-0.05125
3.122,-0.00875,-0.05125
3.123,-0.00875,-0.05125
3.124,-0.00875,-0.0515625
3.125,-0.00875,-0.0515625
3.126,-0.008125,-0.051875
3.127,-0.008125,-0.0521875
3.128,-0.0078125,-0.0521875
3.129,-0.0075,-0.0525
3.13,-0.0071875,-0.0525
3.131,-0.0071875,-0.0528125
3.132,-0.006875,-0.053125
3.133,-0.006875,-0.053125
3.134,-0.0071875,-0.053125
3.135,-0.0071875,-0.0534375
3.136,-0.0075,-0.0534375
3.137,-0.0078125,-0.0534375
3.138,-0.008125,-0.05375
3.139,-0.0084375,-0.05375
3.14,-0.0084375,-0.0540625
3.141,-0.0084375,-0.0540625
3.142,-0.0084375,-0.0540625
3.143,-0.0084375,-0.054375
3.144,-0.0084375,-0.054375
3.145,-0.008125,-0.0546875
3.146,-0.0078125,-0.055
3.147,-0.0075,-0.055
3.148,-0.0071875,-0.055
3.149,-0.006875,-0.0553125
3.15,-0.006875,-0.055625
3.151,-0.0065625,-0.055625
3.152,-0.006875,-0.0559375
3.153,-0.006875,-0.0559375
3.154,-0.0071875,-0.05625
3.155,-0.0075,-0.05625
3.156,-0.0078125,-0.0565625
3.157,-0.0084375,-0.0565625
3.158,-0.00875,-0.0565625
3.159,-0.009375,-0.056875
3.16,-0.0096875,-0.056875
3.161,-0.01,-0.0571875
3.162,-0.0103125,-0.0571875
3.163,-0.0103125,-0.0571875
3.164,-0.0103125,-0.0575
3.165,-0.0103125,-0.0575
3.166,-0.0103125,-0.0578125
3.167,-0.01,-0.058125
3.168,-0.01,-0.058125
3.169,-0.0096875,-0.0584375
3.17,-0.0096875,-0.0584375
3.171,-0.009375,-0.0584375
3.172,-0.009375,-0.05875
3.173,-0.0096875,-0.05875
3.174,-0.0096875,-0.05875
3.175,-0.01,-0.05875
3.176,-0.01,-0.0590625
3.177,-0.0103125,-0.0590625
3.178,-0.0109375,-0.0590625
3.179,-0.0109375,-0.0590625
3.18,-0.01125,-0.0590625
3.181,-0.01125,-0.0590625
3.182,-0.01125,-0.0590625
3.183,-0.01125,-0.0590625
3.184,-0.01125,-0.059375
3.185,-0.010625,-0.059375
3.186,-0.0103125,-0.059375
3.187,-0.0103125,-0.059375
3.188,-0.0096875,-0.059375
3.189,-0.009375,-0.0596875
3.19,-0.009375,-0.0596875
3.191,-0.0090625,-0.0596875
3.192,-0.0090625,-0.06
3.193,-0.0090625,-0.06
3.194,-0.0090625,-0.06
3.195,-0.009375,-0.06
3.196,-0.0096875,-0.06
3.197,-0.0103125,-0.06
3.198,-0.0103125,-0.0603125
3.199,-0.0109375,-0.0603125
3.2,-0.01125,-0.0603125
3.201,-0.0115625,-0.060625
3.202,-0.011875,-0.060625
3.203,-0.011875,-0.060625
3.204,-0.011875,-0.0609375
3.205,-0.011875,-0.0609375
3.206,-0.011875,-0.0609375
3.207,-0.0115625,-0.06125
3.208,-0.0115625,-0.06125
3.209,-0.0115625,-0.0615625
3.21,-0.01125,-0.061875
3.211,-0.01125,-0.061875
3.212,-0.0115625,-0.061875
3.213,-0.0115625,-0.0621875
3.214,-0.0115625,-0.0621875
3.215,-0.011875,-0.0621875
3.216,-0.0125,-0.0625
3.217,-0.0128125,-0.0625
3.218,-0.013125,-0.0625
3.219,-0.0134375,-0.0625
3.22,-0.0140625,-0.0625
3.221,-0.0140625,-0.0628125
3.222,-0.014375,-0.0628125
3.223,-0.014375,-0.0628125
3.224,-0.014375,-0.0628125
3.225,-0.014375,-0.0628125
3.226,-0.014375,-0.0628125
3.227,-0.014375,-0.0628125
3.228,-0.0140625,-0.0628125
3.229,-0.0140625,-0.0628125
3.23,-0.0140625,-0.0628125
3.231,-0.0140625,-0.0628125
3.232,-0.0140625,-0.0628125
3.233,-0.0140625,-0.0625
3.234,-0.014375,-0.0625
3.235,-0.0146875,-0.0621875
3.236,-0.0153125,-0.0621875
3.237,-0.015625,-0.0621875
3.238,-0.0159375,-0.061875
3.239,-0.0165625,-0.0615625
3.24,-0.016875,-0.06125
3.241,-0.0171875,-0.06125
3.242,-0.0175,-0.0609375
3.243,-0.0178125,-0.060625
3.244,-0.0178125,-0.060625
3.245,-0.018125,-0.0603125
3.246,-0.018125,-0.06
3.247,-0.018125,-0.06
3.248,-0.018125,-0.06
3.249,-0.018125,-0.0596875
3.25,-0.018125,-0.059375
3.251,-0.0184375,-0.059375
3.252,-0.0184375,-0.0590625
3.253,-0.01875,-0.05875
3.254,-0.0190625,-0.05875
3.255,-0.019375,-0.0584375
3.256,-0.0196875,-0.058125
3.257,-0.0203125,-0.058125
3.258,-0.020625,-0.0578125
3.259,-0.0209375,-0.0575
3.26,-0.0215625,-0.0575
3.261,-0.0215625,-0.0571875
3.262,-0.021875,-0.056875
3.263,-0.0221875,-0.0565625
3.264,-0.0221875,-0.0565625
3.265,-0.021875,-0.05625
3.266,-0.021875,-0.05625
3.267,-0.021875,-0.05625
3.268,-0.0215625,-0.0559375
3.269,-0.02125,-0.0559375
3.27,-0.02125,-0.0559375
3.271,-0.0209375,-0.0559375
3.272,-0.0209375,-0.055625
3.273,-0.0209375,-0.055625
3.274,-0.0209375,-0.055625
3.275,-0.0209375,-0.055625
3.276,-0.0209375,-0.055625
3.277,-0.0209375,-0.0553125
3.278,-0.0209375,-0.0553125
3.279,-0.0209375,-0.0553125
3.28,-0.0209375,-0.0553125
3.281,-0.0209375,-0.0553125
3.282,-0.020625,-0.055625
3.283,-0.0203125,-0.055625
3.284,-0.02,-0.055625
3.285,-0.019375,-0.055625
3.286,-0.0190625,-0.0559375
3.287,-0.0184375,-0.0559375
3.288,-0.018125,-0.0559375
3.289,-0.0171875,-0.05625
3.29,-0.0165625,-0.05625
3.291,-0.01625,-0.0565625
3.292,-0.015625,-0.0565625
3.293,-0.0153125,-0.056875
3.294,-0.015,-0.056875
3.295,-0.0146875,-0.056875
3.296,-0.014375,-0.0571875
3.297,-0.014375,-0.0575
3.298,-0.0140625,-0.0575
3.299,-0.01375,-0.0575
3.3,-0.01375,-0.0578125
3.301,-0.0134375,-0.0578125
3.302,-0.013125,-0.058125
3.303,-0.0128125,-0.058125
3.304,-0.0125,-0.0584375
3.305,-0.011875,-0.0584375
3.306,-0.0115625,-0.05875
3.307,-0.0109375,-0.05875
3.308,-0.010625,-0.0590625
3.309,-0.0103125,-0.0590625
3.31,-0.0096875,-0.059375
3.311,-0.009375,-0.059375
3.312,-0.009375,-0.059375
3.313,-0.009375,-0.0596875
3.314,-0.009375,-0.0596875
3.315,-0.009375,-0.06
3.316,-0.009375,-0.06
3.317,-0.0096875,-0.06
3.318,-0.0096875,-0.06
3.319,-0.01,-0.0603125
3.32,-0.0103125,-0.0603125
3.321,-0.010625,-0.0603125
3.322,-0.010625,-0.060625
3.323,-0.010625,-0.060625
3.324,-0.0109375,-0.060625
3.325,-0.0109375,-0.0609375
3.326,-0.0109375,-0.0609375
3.327,-0.0109375,-0.06125
3.328,-0.0109375,-0.0615625
3.329,-0.01125,-0.0615625
3.33,-0.01125,-0.061875
3.331,-0.0115625,-0.0621875
3.332,-0.0115625,-0.0621875
3.333,-0.0121875,-0.0625
3.334,-0.0125,-0.0625
3.335,-0.013125,-0.0628125
3.336,-0.0134375,-0.0628125
3.337,-0.0140625,-0.0628125
3.338,-0.0146875,-0.063125
3.339,-0.015,-0.063125
3.34,-0.015625,-0.063125
3.341,-0.01625,-0.0634375
3.342,-0.01625,-0.0634375
3.343,-0.016875,-0.06375
3.344,-0.016875,-0.06375
3.345,-0.016875,-0.0640625
3.346,-0.016875,-0.064375
3.347,-0.016875,-0.064375
3.348,-0.016875,-0.0646875
3.349,-0.016875,-0.0646875
3.35,-0.0165625,-0.0646875
3.351,-0.0165625,-0.065
3.352,-0.0165625,-0.065
3.353,-0.0165625,-0.065
3.354,-0.0165625,-0.0653125
3.355,-0.0165625,-0.0653125
3.356,-0.0165625,-0.0653125
3.357,-0.016875,-0.0653125
3.358,-0.016875,-0.0653125
3.359,-0.016875,-0.065
3.36,-0.016875,-0.065
3.361,-0.016875,-0.065
3.362,-0.0165625,-0.065
3.363,-0.01625,-0.065
3.364,-0.01625,-0.065
3.365,-0.015625,-0.065
3.366,-0.0153125,-0.065
3.367,-0.015,-0.065
3.368,-0.014375,-0.065
3.369,-0.0140625,-0.065
3.37,-0.01375,-0.065
3.371,-0.0134375,-0.065
3.372,-0.013125,-0.065
3.373,-0.013125,-0.065
3.374,-0.013125,-0.065
3.375,-0.013125,-0.0646875
3.376,-0.013125,-0.0646875
3.377,-0.013125,-0.0646875
3.378,-0.0134375,-0.064375
3.379,-0.0134375,-0.064375
3.38,-0.0134375,-0.064375
3.381,-0.0134375,-0.0640625
3.382,-0.0134375,-0.0640625
3.383,-0.0134375,-0.0640625
3.384,-0.0134375,-0.0640625
3.385,-0.013125,-0.0640625
3.386,-0.0128125,-0.06375
3.387,-0.0125,-0.06375
3.388,-0.0121875,-0.06375
3.389,-0.011875,-0.06375
3.39,-0.0115625,-0.06375
3.391,-0.0115625,-0.06375
3.392,-0.01125,-0.06375
3.393,-0.0109375,-0.06375
3.394,-0.0109375,-0.06375
3.395,-0.0109375,-0.06375
3.396,-0.0109375,-0.06375
3.397,-0.0109375,-0.06375
3.398,-0.0109375,-0.06375
3.399,-0.0109375,-0.06375
3.4,-0.010625,-0.06375
3.401,-0.010625,-0.06375
3.402,-0.0103125,-0.06375
3.403,-0.01,-0.06375
3.404,-0.0096875,-0.06375
3.405,-0.0090625,-0.0640625
3.406,-0.00875,-0.0640625
3.407,-0.008125,-0.064375
3.408,-0.0075,-0.064375
3.409,-0.0071875,-0.064375
3.41,-0.006875,-0.0646875
3.411,-0.00625,-0.0646875
3.412,-0.0059375,-0.0646875
3.413,-0.005625,-0.065
3.414,-0.005625,-0.065
3.415,-0.005625,-0.0653125
3.416,-0.005625,-0.0653125
3.417,-0.005625,-0.0653125
3.418,-0.0059375,-0.065625
3.419,-0.0059375,-0.065625
3.42,-0.0059375,-0.065625
3.421,-0.0059375,-0.0659375
3.422,-0.0059375,-0.06625
3.423,-0.005625,-0.06625
3.424,-0.005625,-0.06625
3.425,-0.0053125,-0.0665625
3.426,-0.005,-0.066875
3.427,-0.0046875,-0.066875
3.428,-0.004375,-0.0671875
3.429,-0.0040625,-0.0675
3.43,-0.0040625,-0.0678125
3.431,-0.00375,-0.0678125
3.432,-0.00375,-0.068125
3.433,-0.0040625,-0.068125
3.434,-0.0040625,-0.068125
3.435,-0.004375,-0.0684375
3.436,-0.0046875,-0.0684375
3.437,-0.005,-0.0684375
3.438,-0.0053125,-0.0684375
3.439,-0.005625,-0.0684375
3.44,-0.00625,-0.06875
3.441,-0.00625,-0.06875
3.442,-0.0065625,-0.06875
3.443,-0.0065625,-0.06875
3.444,-0.0065625,-0.06875
3.445,-0.0065625,-0.06875
3.446,-0.0065625,-0.06875
3.447,-0.00625,-0.06875
3.448,-0.00625,-0.06875
3.449,-0.00625,-0.06875
3.45,-0.00625,-0.06875
3.451,-0.00625,-0.06875
3.452,-0.00625,-0.06875
3.453,-0.006875,-0.06875
3.454,-0.006875,-0.06875
3.455,-0.0075,-0.06875
3.456,-0.0078125,-0.0684375
3.457,-0.0084375,-0.0684375
3.458,-0.00875,-0.0684375
3.459,-0.009375,-0.068125
3.46,-0.0096875,-0.068125
3.461,-0.01,-0.068125
3.462,-0.0103125,-0.0678125
3.463,-0.0103125,-0.0678125
3.464,-0.010625,-0.0678125
3.465,-0.010625,-0.0678125
3.466,-0.0103125,-0.0678125
3.467,-0.0103125,-0.0678125
3.468,-0.0103125,-0.0678125
3.469,-0.0103125,-0.0678125
3.47,-0.0103125,-0.0678125
3.471,-0.0103125,-0.0678125
3.472,-0.0103125,-0.0675
3.473,-0.010625,-0.0675
3.474,-0.0109375,-0.0675
3.475,-0.0115625,-0.0675
3.476,-0.011875,-0.0675
3.477,-0.0121875,-0.0675
3.478,-0.0128125,-0.0675
3.479,-0.013125,-0.0671875
3.48,-0.0134375,-0.0671875
3.481,-0.01375,-0.0671875
3.482,-0.0140625,-0.0671875
3.483,-0.0140625,-0.0671875
3.484,-0.0140625,-0.0671875
3.485,-0.01375,-0.0671875
3.486,-0.01375,-0.0671875
3.487,-0.01375,-0.0675
3.488,-0.013125,-0.0675
3.489,-0.013125,-0.0675
3.49,-0.013125,-0.0675
3.491,-0.0128125,-0.0675
3.492,-0.0128125,-0.0675
3.493,-0.0128125,-0.0675
3.494,-0.0128125,-0.0675
3.495,-0.013125,-0.0675
3.496,-0.013125,-0.0675
3.497,-0.0134375,-0.0675
3.498,-0.01375,-0.0675
3.499,-0.01375,-0.0675
3.5,-0.0140625,-0.0675
3.501,-0.0140625,-0.0675
3.502,-0.0140625,-0.0675
3.503,-0.01375,-0.0675
3.504,-0.01375,-0.0675
3.505,-0.013125,-0.0678125
3.506,-0.0128125,-0.0678125
3.507,-0.0125,-0.0678125
3.508,-0.011875,-0.0678125
3.509,-0.0115625,-0.0678125
3.51,-0.01125,-0.068125
3.511,-0.0109375,-0.068125
3.512,-0.010625,-0.068125
3.513,-0.010625,-0.068125
3.514,-0.0103125,-0.068125
3.515,-0.010625,-0.068125
3.516,-0.010625,-0.068125
3.517,-0.010625,-0.068125
3.518,-0.010625,-0.0678125
3.519,-0.0109375,-0.0678125
3.52,-0.0109375,-0.0678125
3.521,-0.010625,-0.0678125
3.522,-0.010625,-0.0678125
3.523,-0.010625,-0.0678125
3.524,-0.0103125,-0.0678125
3.525,-0.0096875,-0.0678125
3.526,-0.009375,-0.0678125
3.527,-0.0090625,-0.068125
3.528,-0.0084375,-0.068125
3.529,-0.008125,-0.068125
3.53,-0.0075,-0.068125
3.531,-0.0071875,-0.068125
3.532,-0.006875,-0.068125
3.533,-0.006875,-0.068125
3.534,-0.006875,-0.068125
3.535,-0.006875,-0.068125
3.536,-0.006875,-0.068125
3.537,-0.006875,-0.068125
3.538,-0.006875,-0.068125
3.539,-0.0071875,-0.068125
3.54,-0.0071875,-0.068125
3.541,-0.006875,-0.068125
3.542,-0.006875,-0.068125
3.543,-0.006875,-0.068125
3.544,-0.00625,-0.068125
3.545,-0.00625,-0.068125
3.546,-0.005625,-0.0684375
3.547,-0.0053125,-0.0684375
3.548,-0.0046875,-0.0684375
3.549,-0.004375,-0.0684375
3.55,-0.0040625,-0.0684375
3.551,-0.0034375,-0.06875
3.552,-0.0034375,-0.06875
3.553,-0.003125,-0.06875
3.554,-0.003125,-0.06875
3.555,-0.003125,-0.06875
3.556,-0.003125,-0.06875
3.557,-0.003125,-0.06875
3.558,-0.0034375,-0.06875
3.559,-0.0034375,-0.06875
3.56,-0.0034375,-0.06875
3.561,-0.0034375,-0.0690625
3.562,-0.003125,-0.0690625
3.563,-0.003125,-0.0690625
3.564,-0.0025,-0.0690625
3.565,-0.0021875,-0.0690625
3.566,-0.001875,-0.0690625
3.567,-0.0009375,-0.0690625
3.568,-0.000625,-0.069375
3.569,-0.0003125,-0.069375
3.57,0.0003125,-0.069375
3.571,0.0009375,-0.069375
3.572,0.0009375,-0.069375
3.573,0.0015625,-0.069375
3.574,0.0015625,-0.069375
3.575,0.0015625,-0.069375
3.576,0.0015625,-0.069375
3.577,0.0015625,-0.0690625
3.578,0.0015625,-0.0690625
3.579,0.00125,-0.0690625
3.58,0.00125,-0.0690625
3.581,0.00125,-0.0690625
3.582,0.00125,-0.06875
3.583,0.0015625,-0.06875
3.584,0.0015625,-0.06875
3.585,0.001875,-0.06875
3.586,0.0021875,-0.0684375
3.587,0.0025,-0.0684375
3.588,0.0028125,-0.0684375
3.589,0.003125,-0.0684375
3.59,0.0034375,-0.0684375
3.591,0.0034375,-0.068125
3.592,0.0034375,-0.068125
3.593,0.0034375,-0.0678125
3.594,0.003125,-0.0678125
3.595,0.0028125,-0.0675
3.596,0.0028125,-0.0675
3.597,0.0021875,-0.0675
3.598,0.0021875,-0.0671875
3.599,0.0015625,-0.0671875
3.6,0.0015625,-0.066875
3.601,0.00125,-0.066875
3.602,0.0009375,-0.066875
3.603,0.0009375,-0.066875
3.604,0.0009375,-0.0665625
3.605,0.0009375,-0.0665625
3.606,0.00125,-0.0665625
3.607,0.00125,-0.0665625
3.608,0.0015625,-0.066875
3.609,0.001875,-0.066875
3.61,0.001875,-0.066875
3.611,0.0021875,-0.066875
3.612,0.0021875,-0.066875
3.613,0.0021875,-0.066875
3.614,0.0021875,-0.066875
3.615,0.001875,-0.066875
3.616,0.001875,-0.066875
3.617,0.0015625,-0.066875
3.618,0.00125,-0.066875
3.619,0.00125,-0.066875
3.62,0.00125,-0.066875
3.621,0.00125,-0.066875
3.622,0.00125,-0.0671875
3.623,0.00125,-0.0671875
3.624,0.001875,-0.0671875
3.625,0.0021875,-0.0671875
3.626,0.0025,-0.0671875
3.627,0.0034375,-0.0675
3.628,0.00375,-0.0675
3.629,0.0040625,-0.0678125
3.63,0.005,-0.0678125
3.631,0.0053125,-0.0678125
3.632,0.0059375,-0.0678125
3.633,0.00625,-0.0678125
3.634,0.0065625,-0.068125
3.635,0.006875,-0.068125
3.636,0.0071875,-0.068125
3.637,0.0071875,-0.068125
3.638,0.0071875,-0.068125
3.639,0.0075,-0.068125
3.64,0.0078125,-0.068125
3.641,0.0078125,-0.068125
3.642,0.0084375,-0.068125
3.643,0.00875,-0.068125
3.644,0.0090625,-0.0684375
3.645,0.01,-0.0684375
3.646,0.0103125,-0.0684375
3.647,0.0109375,-0.06875
3.648,0.011875,-0.06875
3.649,0.0121875,-0.06875
3.65,0.0125,-0.0690625
3.651,0.013125,-0.0690625
3.652,0.0134375,-0.0690625
3.653,0.0134375,-0.069375
3.654,0.0134375,-0.069375
3.655,0.0134375,-0.069375
3.656,0.0134375,-0.069375
3.657,0.013125,-0.069375
3.658,0.0128125,-0.069375
3.659,0.0121875,-0.069375
3.66,0.0121875,-0.0696875
3.661,0.0115625,-0.0696875
3.662,0.0115625,-0.0696875
3.663,0.01125,-0.0696875
3.664,0.0109375,-0.0696875
3.665,0.0109375,-0.0696875
3.666,0.010625,-0.0696875
3.667,0.010625,-0.0696875
3.668,0.010625,-0.0696875
3.669,0.0103125,-0.0696875
3.67,0.0103125,-0.0696875
3.671,0.01,-0.0696875
3.672,0.0096875,-0.0696875
3.673,0.009375,-0.0696875
3.674,0.0090625,-0.0696875
3.675,0.008125,-0.069375
3.676,0.0078125,-0.069375
3.677,0.0071875,-0.069375
3.678,0.00625,-0.0690625
3.679,0.0059375,-0.0690625
3.68,0.0053125,-0.06875
3.681,0.005,-0.06875
3.682,0.0046875,-0.06875
3.683,0.0040625,-0.0684375
3.684,0.0040625,-0.0684375
3.685,0.0040625,-0.068125
3.686,0.00375,-0.068125
3.687,0.0040625,-0.0678125
3.688,0.0040625,-0.0678125
3.689,0.0040625,-0.0678125
3.69,0.0040625,-0.0675
3.691,0.004375,-0.0675
3.692,0.004375,-0.0671875
3.693,0.0040625,-0.0671875
3.694,0.0040625,-0.066875
3.695,0.0040625,-0.0665625
3.696,0.00375,-0.0665625
3.697,0.0034375,-0.06625
3.698,0.0034375,-0.0659375
3.699,0.0034375,-0.065625
3.7,0.003125,-0.065625
3.701,0.003125,-0.0653125
3.702,0.003125,-0.065
3.703,0.003125,-0.0646875
3.704,0.0034375,-0.0646875
3.705,0.0034375,-0.064375
3.706,0.00375,-0.0640625
3.707,0.004375,-0.06375
3.708,0.004375,-0.06375
3.709,0.005,-0.0634375
3.71,0.0053125,-0.063125
3.711,0.0053125,-0.063125
3.712,0.005625,-0.0625
3.713,0.005625,-0.0621875
3.714,0.005625,-0.0621875
3.715,0.005625,-0.061875
3.716,0.0053125,-0.06125
3.717,0.0053125,-0.06125
3.718,0.0046875,-0.060625
3.719,0.0046875,-0.0603125
3.72,0.004375,-0.06
3.721,0.0040625,-0.0596875
3.722,0.0040625,-0.059375
3.723,0.00375,-0.05875
3.724,0.00375,-0.05875
3.725,0.00375,-0.058125
3.726,0.0034375,-0.058125
3.727,0.0034375,-0.0575
3.728,0.0034375,-0.0575
3.729,0.0034375,-0.0571875
3.73,0.003125,-0.0565625
3.731,0.0028125,-0.0565625
3.732,0.0028125,-0.05625
3.733,0.0021875,-0.0559375
3.734,0.001875,-0.055625
3.735,0.00125,-0.0553125
3.736,0.0009375,-0.055
3.737,0,-0.0546875
3.738,-0.0003125,-0.0546875
3.739,-0.00125,-0.0540625
3.74,-0.0015625,-0.0540625
3.741,-0.0025,-0.05375
3.742,-0.0028125,-0.0534375
3.743,-0.003125,-0.0534375
3.744,-0.0034375,-0.0534375
3.745,-0.00375,-0.053125
3.746,-0.0040625,-0.053125
3.747,-0.0040625,-0.053125
3.748,-0.0040625,-0.053125
3.749,-0.004375,-0.053125
3.75,-0.004375,-0.053125
3.751,-0.004375,-0.053125
3.752,-0.004375,-0.053125
3.753,-0.0046875,-0.053125
3.754,-0.005,-0.053125
3.755,-0.005,-0.053125
3.756,-0.0053125,-0.053125
3.757,-0.0059375,-0.053125
3.758,-0.0059375,-0.053125
3.759,-0.00625,-0.053125
3.76,-0.00625,-0.053125
3.761,-0.00625,-0.053125
3.762,-0.00625,-0.053125
3.763,-0.00625,-0.0534375
3.764,-0.0059375,-0.0534375
3.765,-0.005625,-0.0534375
3.766,-0.0053125,-0.0534375
3.767,-0.005,-0.0534375
3.768,-0.0046875,-0.05375
3.769,-0.0040625,-0.05375
3.77,-0.00375,-0.05375
3.771,-0.0034375,-0.05375
3.772,-0.003125,-0.05375
3.773,-0.0028125,-0.05375
3.774,-0.0028125,-0.05375
3.775,-0.0025,-0.05375
3.776,-0.0025,-0.05375
3.777,-0.0025,-0.0534375
3.778,-0.0025,-0.0534375
3.779,-0.0025,-0.0534375
3.78,-0.0025,-0.0534375
3.781,-0.0021875,-0.053125
3.782,-0.001875,-0.053125
3.783,-0.001875,-0.053125
3.784,-0.00125,-0.053125
3.785,-0.0009375,-0.053125
3.786,-0.0003125,-0.053125
3.787,0,-0.0528125
3.788,0.0003125,-0.0528125
3.789,0.0009375,-0.0528125
3.79,0.00125,-0.0528125
3.791,0.001875,-0.0528125
3.792,0.0021875,-0.0528125
3.793,0.0021875,-0.0528125
3.794,0.0025,-0.0528125
3.795,0.0025,-0.0528125
3.796,0.0025,-0.0525
3.797,0.0025,-0.0525
3.798,0.0021875,-0.0525
3.799,0.0021875,-0.0525
3.8,0.0021875,-0.0525
3.801,0.0021875,-0.0525
3.802,0.0021875,-0.0525
3.803,0.0025,-0.0525
3.804,0.0025,-0.0525
3.805,0.0025,-0.0528125
3.806,0.003125,-0.0528125
3.807,0.0034375,-0.0528125
3.808,0.0034375,-0.0528125
3.809,0.00375,-0.053125
3.81,0.0040625,-0.053125
3.811,0.0040625,-0.053125
3.812,0.004375,-0.0534375
3.813,0.004375,-0.0534375
3.814,0.0040625,-0.0534375
3.815,0.0040625,-0.0534375
3.816,0.00375,-0.0534375
3.817,0.0034375,-0.05375
3.818,0.0034375,-0.05375
3.819,0.003125,-0.05375
3.82,0.0028125,-0.05375
3.821,0.0025,-0.05375
3.822,0.0025,-0.05375
3.823,0.0025,-0.05375
3.824,0.0025,-0.05375
3.825,0.0025,-0.05375
3.826,0.0025,-0.05375
3.827,0.0025,-0.05375
3.828,0.0028125,-0.05375
3.829,0.0028125,-0.05375
3.83,0.0028125,-0.05375
3.831,0.0028125,-0.05375
3.832,0.0028125,-0.05375
3.833,0.0028125,-0.0534375
3.834,0.0028125,-0.0534375
3.835,0.0021875,-0.053125
3.836,0.0021875,-0.0528125
3.837,0.001875,-0.0528125
3.838,0.00125,-0.0525
3.839,0.00125,-0.0521875
3.84,0.0009375,-0.051875
3.841,0.000625,-0.0515625
3.842,0.000625,-0.05125
3.843,0.000625,-0.0509375
3.844,0.000625,-0.050625
3.845,0.000625,-0.0503125
3.846,0.000625,-0.05
3.847,0.00125,-0.0496875
3.848,0.00125,-0.049375
3.849,0.0015625,-0.04875
3.85,0.001875,-0.0484375
3.851,0.0021875,-0.048125
3.852,0.0025,-0.0478125
3.853,0.0025,-0.0471875
3.854,0.0025,-0.046875
3.855,0.0028125,-0.04625
3.856,0.0028125,-0.0459375
3.857,0.0028125,-0.045625
3.858,0.0028125,-0.045
3.859,0.0028125,-0.0446875
3.86,0.0028125,-0.0440625
3.861,0.0028125,-0.04375
3.862,0.003125,-0.043125
3.863,0.003125,-0.0428125
3.864,0.00375,-0.0425
3.865,0.0040625,-0.0421875
3.866,0.004375,-0.0415625
3.867,0.005,-0.04125
3.868,0.0053125,-0.0409375
3.869,0.0059375,-0.040625
3.87,0.00625,-0.04
3.871,0.006875,-0.04
3.872,0.006875,-0.0396875
3.873,0.0075,-0.0390625
3.874,0.0075,-0.0390625
3.875,0.0075,-0.0384375
3.876,0.0075,-0.038125
3.877,0.0075,-0.038125
3.878,0.0071875,-0.0378125
3.879,0.0071875,-0.0371875
3.88,0.0071875,-0.0371875
3.881,0.006875,-0.036875
3.882,0.006875,-0.0365625
3.883,0.006875,-0.0365625
3.884,0.0071875,-0.03625
3.885,0.0071875,-0.03625
3.886,0.0071875,-0.0359375
3.887,0.0075,-0.0359375
3.888,0.0075,-0.0359375
3.889,0.0078125,-0.0359375
3.89,0.0078125,-0.0359375
3.891,0.0078125,-0.035625
3.892,0.0078125,-0.035625
3.893,0.0078125,-0.035625
3.894,0.0078125,-0.035625
3.895,0.0075,-0.0359375
3.896,0.0071875,-0.0359375
3.897,0.006875,-0.0359375
3.898,0.0065625,-0.0359375
3.899,0.00625,-0.0359375
3.9,0.0059375,-0.0359375
3.901,0.005625,-0.0359375
3.902,0.0053125,-0.0359375
3.903,0.0053125,-0.0359375
3.904,0.005,-0.0359375
3.905,0.005,-0.03625
3.906,0.005,-0.03625
3.907,0.005,-0.0365625
3.908,0.005,-0.0365625
3.909,0.005,-0.0365625
3.91,0.005,-0.036875
3.911,0.0046875,-0.036875
3.912,0.0046875,-0.036875
3.913,0.0046875,-0.0371875
3.914,0.004375,-0.0371875
3.915,0.0040625,-0.0371875
3.916,0.00375,-0.0371875
3.917,0.0034375,-0.0375
3.918,0.003125,-0.0375
3.919,0.0028125,-0.0375
3.92,0.0025,-0.0375
3.921,0.0021875,-0.0375
3.922,0.001875,-0.0378125
3.923,0.001875,-0.0378125
3.924,0.001875,-0.0378125
3.925,0.001875,-0.038125
3.926,0.001875,-0.038125
3.927,0.0021875,-0.038125
3.928,0.0021875,-0.0384375
3.929,0.0025,-0.0384375
3.93,0.0025,-0.0384375
3.931,0.0025,-0.0384375
3.932,0.0025,-0.03875
3.933,0.0025,-0.03875
3.934,0.0025,-0.03875
3.935,0.0025,-0.03875
3.936,0.0021875,-0.03875
3.937,0.0021875,-0.03875
3.938,0.0021875,-0.03875
3.939,0.001875,-0.0384375
3.94,0.001875,-0.0384375
3.941,0.001875,-0.0384375
3.942,0.001875,-0.0384375
3.943,0.001875,-0.0384375
3.944,0.001875,-0.0384375
3.945,0.0021875,-0.0384375
3.946,0.0025,-0.0384375
3.947,0.0025,-0.0384375
3.948,0.0028125,-0.0384375
3.949,0.003125,-0.0384375
3.95,0.003125,-0.0384375
3.951,0.003125,-0.0384375
3.952,0.003125,-0.0384375
3.953,0.003125,-0.0384375
3.954,0.003125,-0.038125
3.955,0.003125,-0.038125
3.956,0.0028125,-0.038125
3.957,0.0025,-0.038125
3.958,0.0021875,-0.038125
3.959,0.0021875,-0.038125
3.96,0.0021875,-0.0378125
3.961,0.001875,-0.0378125
3.962,0.001875,-0.0378125
3.963,0.001875,-0.0378125
3.964,0.001875,-0.0378125
3.965,0.0021875,-0.0378125
3.966,0.0021875,-0.0378125
3.967,0.0025,-0.0378125
3.968,0.0025,-0.0378125
3.969,0.0025,-0.0378125
3.97,0.0028125,-0.0378125
3.971,0.0028125,-0.0378125
3.972,0.0028125,-0.0378125
3.973,0.0028125,-0.0378125
3.974,0.0028125,-0.0378125
3.975,0.0028125,-0.0378125
3.976,0.0025,-0.0378125
3.977,0.0025,-0.0378125
3.978,0.0025,-0.0378125
3.979,0.0021875,-0.0375
3.98,0.0021875,-0.0375
3.981,0.0021875,-0.0375
3.982,0.0021875,-0.0375
3.983,0.0021875,-0.0375
3.984,0.0025,-0.0375
3.985,0.0025,-0.0375
3.986,0.0028125,-0.0371875
3.987,0.003125,-0.0371875
3.988,0.003125,-0.0371875
3.989,0.00375,-0.0371875
3.99,0.00375,-0.0371875
3.991,0.00375,-0.0371875
3.992,0.0040625,-0.0371875
3.993,0.0040625,-0.0371875
3.994,0.0040625,-0.036875
3.995,0.0040625,-0.036875
3.996,0.00375,-0.036875
3.997,0.00375,-0.0365625
3.998,0.00375,-0.0365625
3.999,0.0034375,-0.0365625
4,0.0034375,-0.03625
4.001,0.0034375,-0.03625
4.002,0.0034375,-0.0359375
4.003,0.0034375,-0.0359375
4.004,0.00375,-0.0359375
4.005,0.00375,-0.0359375
4.006,0.0040625,-0.035625
4.007,0.004375,-0.035625
4.008,0.004375,-0.035625
4.009,0.0046875,-0.0353125
4.01,0.005,-0.0353125
4.011,0.005,-0.0353125
4.012,0.005,-0.035
4.013,0.005,-0.035
4.014,0.0046875,-0.0346875
4.015,0.0046875,-0.0346875
4.016,0.0046875,-0.0346875
4.017,0.004375,-0.034375
4.018,0.0040625,-0.034375
4.019,0.00375,-0.0340625
4.02,0.00375,-0.0340625
4.021,0.00375,-0.0340625
4.022,0.00375,-0.03375
4.023,0.00375,-0.03375
4.024,0.00375,-0.0334375
4.025,0.00375,-0.0334375
4.026,0.0040625,-0.0334375
4.027,0.004375,-0.0334375
4.028,0.004375,-0.0334375
4.029,0.0046875,-0.033125
4.03,0.005,-0.033125
4.031,0.005,-0.033125
4.032,0.0053125,-0.033125
4.033,0.0053125,-0.033125
4.034,0.0053125,-0.033125
4.035,0.005,-0.0328125
4.036,0.005,-0.0328125
4.037,0.005,-0.0325
4.038,0.0046875,-0.0325
4.039,0.004375,-0.0325
4.04,0.004375,-0.0321875
4.041,0.0040625,-0.0321875
4.042,0.0040625,-0.031875
4.043,0.0040625,-0.031875
4.044,0.00375,-0.031875
4.045,0.00375,-0.0315625
4.046,0.0040625,-0.0315625
4.047,0.0040625,-0.03125
4.048,0.0040625,-0.0309375
4.049,0.0040625,-0.0309375
4.05,0.00375,-0.030625
4.051,0.00375,-0.0303125
4.052,0.00375,-0.0303125
4.053,0.0034375,-0.03
4.054,0.0028125,-0.0296875
4.055,0.0025,-0.029375
4.056,0.0021875,-0.0290625
4.057,0.0015625,-0.02875
4.058,0.0009375,-0.0284375
4.059,0.000625,-0.028125
4.06,-0.0003125,-0.0278125
4.061,-0.000625,-0.0275
4.062,-0.00125,-0.026875
4.063,-0.0015625,-0.026875
4.064,-0.001875,-0.02625
4.065,-0.0021875,-0.0259375
4.066,-0.0025,-0.0259375
4.067,-0.0028125,-0.025625
4.068,-0.0028125,-0.0253125
4.069,-0.003125,-0.025
4.07,-0.003125,-0.0246875
4.071,-0.003125,-0.0246875
4.072,-0.0034375,-0.024375
4.073,-0.0034375,-0.0240625
4.074,-0.00375,-0.0240625
4.075,-0.0040625,-0.02375
4.076,-0.004375,-0.0234375
4.077,-0.004375,-0.0234375
4.078,-0.0046875,-0.023125
4.079,-0.005,-0.0228125
4.08,-0.005,-0.0228125
4.081,-0.0053125,-0.0225
4.082,-0.0053125,-0.0225
4.083,-0.0053125,-0.0221875
4.084,-0.005,-0.0221875
4.085,-0.005,-0.021875
4.086,-0.005,-0.021875
4.087,-0.004375,-0.021875
4.088,-0.004375,-0.0215625
4.089,-0.0040625,-0.0215625
4.09,-0.00375,-0.0215625
4.091,-0.00375,-0.0215625
4.092,-0.00375,-0.02125
4.093,-0.0034375,-0.02125
4.094,-0.00375,-0.02125
4.095,-0.00375,-0.02125
4.096,-0.00375,-0.02125
4.097,-0.0040625,-0.0209375
4.098,-0.0040625,-0.0209375
4.099,-0.004375,-0.0209375
4.1,-0.0046875,-0.0209375
4.101,-0.0046875,-0.0209375
4.102,-0.005,-0.0209375
4.103,-0.005,-0.02125
4.104,-0.005,-0.02125
4.105,-0.0053125,-0.02125
4.106,-0.0053125,-0.02125
4.107,-0.0053125,-0.0215625
4.108,-0.0053125,-0.0215625
4.109,-0.0053125,-0.0215625
4.11,-0.0053125,-0.021875
4.111,-0.0053125,-0.021875
4.112,-0.0053125,-0.0221875
4.113,-0.005625,-0.0225
4.114,-0.0059375,-0.0225
4.115,-0.0059375,-0.0228125
4.116,-0.0065625,-0.0228125
4.117,-0.006875,-0.0228125
4.118,-0.0071875,-0.023125
4.119,-0.0075,-0.023125
4.12,-0.0078125,-0.0234375
4.121,-0.008125,-0.0234375
4.122,-0.0084375,-0.0234375
4.123,-0.00875,-0.02375
4.124,-0.00875,-0.02375
4.125,-0.00875,-0.0240625
4.126,-0.00875,-0.024375
4.127,-0.00875,-0.024375
4.128,-0.0090625,-0.0246875
4.129,-0.0090625,-0.0246875
4.13,-0.0090625,-0.0246875
4.131,-0.0090625,-0.025
4.132,-0.0090625,-0.025
4.133,-0.009375,-0.025
4.134,-0.0096875,-0.0253125
4.135,-0.0096875,-0.0253125
4.136,-0.01,-0.0253125
4.137,-0.0103125,-0.0253125
4.138,-0.010625,-0.0253125
4.139,-0.0109375,-0.025625
4.14,-0.01125,-0.025625
4.141,-0.0115625,-0.025625
4.142,-0.011875,-0.025625
4.143,-0.011875,-0.025625
4.144,-0.011875,-0.025625
4.145,-0.0121875,-0.025625
4.146,-0.0121875,-0.025625
4.147,-0.011875,-0.025625
4.148,-0.011875,-0.025625
4.149,-0.011875,-0.025625
4.15,-0.011875,-0.025625
4.151,-0.011875,-0.025625
4.152,-0.011875,-0.025625
4.153,-0.011875,-0.025625
4.154,-0.011875,-0.025625
4.155,-0.0121875,-0.025625
4.156,-0.0121875,-0.025625
4.157,-0.0125,-0.0253125
4.158,-0.0128125,-0.0253125
4.159,-0.0128125,-0.0253125
4.16,-0.013125,-0.025
4.161,-0.013125,-0.025
4.162,-0.013125,-0.0246875
4.163,-0.0134375,-0.0246875
4.164,-0.013125,-0.0246875
4.165,-0.013125,-0.024375
4.166,-0.013125,-0.024375
4.167,-0.013125,-0.0240625
4.168,-0.0128125,-0.0240625
4.169,-0.0128125,-0.0240625
4.17,-0.0128125,-0.02375
4.171,-0.0125,-0.02375
4.172,-0.0125,-0.0234375
4.173,-0.0125,-0.0234375
4.174,-0.0128125,-0.023125
4.175,-0.0128125,-0.0228125
4.176,-0.0128125,-0.0228125
4.177,-0.013125,-0.0225
4.178,-0.0134375,-0.0225
4.179,-0.01375,-0.0221875
4.18,-0.01375,-0.021875
4.181,-0.0140625,-0.021875
4.182,-0.014375,-0.021875
4.183,-0.014375,-0.0215625
4.184,-0.014375,-0.02125
4.185,-0.014375,-0.02125
4.186,-0.014375,-0.02125
4.187,-0.014375,-0.0209375
4.188,-0.014375,-0.0209375
4.189,-0.014375,-0.0209375
4.19,-0.014375,-0.020625
4.191,-0.014375,-0.020625
4.192,-0.0146875,-0.020625
4.193,-0.0146875,-0.0203125
4.194,-0.0146875,-0.0203125
4.195,-0.015,-0.0203125
4.196,-0.015,-0.02
4.197,-0.0153125,-0.02
4.198,-0.0159375,-0.0196875
4.199,-0.0159375,-0.0196875
4.2,-0.0165625,-0.0196875
4.201,-0.0165625,-0.019375
4.202,-0.016875,-0.019375
4.203,-0.0171875,-0.0190625
4.204,-0.0171875,-0.0190625
4.205,-0.0175,-0.01875
4.206,-0.0175,-0.01875
4.207,-0.0175,-0.01875
4.208,-0.0178125,-0.0184375
4.209,-0.0178125,-0.0184375
4.21,-0.0178125,-0.018125
4.211,-0.0178125,-0.018125
4.212,-0.018125,-0.018125
4.213,-0.0184375,-0.0178125
4.214,-0.0184375,-0.0178125
4.215,-0.0190625,-0.0175
4.216,-0.019375,-0.0175
4.217,-0.0196875,-0.0175
4.218,-0.02,-0.0171875
4.219,-0.020625,-0.0171875
4.22,-0.0209375,-0.0171875
4.221,-0.02125,-0.016875
4.222,-0.021875,-0.016875
4.223,-0.021875,-0.016875
4.224,-0.0225,-0.016875
4.225,-0.0225,-0.0165625
4.226,-0.0225,-0.0165625
4.227,-0.0228125,-0.0165625
4.228,-0.023125,-0.0165625
4.229,-0.023125,-0.0165625
4.23,-0.023125,-0.0165625
4.231,-0.0234375,-0.016875
4.232,-0.0234375,-0.016875
4.233,-0.02375,-0.016875
4.234,-0.0240625,-0.016875
4.235,-0.024375,-0.016875
4.236,-0.0246875,-0.016875
4.237,-0.025,-0.016875
4.238,-0.025,-0.016875
4.239,-0.025625,-0.0171875
4.24,-0.0259375,-0.0171875
4.241,-0.0259375,-0.0171875
4.242,-0.02625,-0.0175
4.243,-0.02625,-0.0175
4.244,-0.02625,-0.0175
4.245,-0.02625,-0.0178125
4.246,-0.0259375,-0.0178125
4.247,-0.0259375,-0.018125
4.248,-0.0259375,-0.018125
4.249,-0.025625,-0.0184375
4.25,-0.0253125,-0.01875
4.251,-0.025,-0.01875
4.252,-0.025,-0.0190625
4.253,-0.0246875,-0.019375
4.254,-0.0246875,-0.019375
4.255,-0.024375,-0.019375
4.256,-0.024375,-0.0196875
4.257,-0.024375,-0.02
4.258,-0.0240625,-0.02
4.259,-0.0240625,-0.0203125
4.26,-0.0240625,-0.0203125
4.261,-0.0240625,-0.020625
4.262,-0.02375,-0.0209375
4.263,-0.0234375,-0.0209375
4.264,-0.0234375,-0.0209375
4.265,-0.023125,-0.02125
4.266,-0.0228125,-0.0215625
4.267,-0.0225,-0.021875
4.268,-0.021875,-0.021875
4.269,-0.0215625,-0.021875
4.27,-0.02125,-0.0221875
4.271,-0.0209375,-0.0225
4.272,-0.0203125,-0.0225
4.273,-0.0203125,-0.0228125
4.274,-0.02,-0.0228125
4.275,-0.0196875,-0.0228125
4.276,-0.0196875,-0.023125
4.277,-0.0196875,-0.023125
4.278,-0.019375,-0.0234375
4.279,-0.019375,-0.0234375
4.28,-0.019375,-0.0234375
4.281,-0.0190625,-0.02375
4.282,-0.0190625,-0.02375
4.283,-0.0190625,-0.02375
4.284,-0.0184375,-0.02375
4.285,-0.018125,-0.02375
4.286,-0.018125,-0.0240625
4.287,-0.0175,-0.0240625
4.288,-0.0171875,-0.0240625
4.289,-0.0165625,-0.024375
4.29,-0.01625,-0.024375
4.291,-0.0159375,-0.024375
4.292,-0.0153125,-0.024375
4.293,-0.015,-0.024375
4.294,-0.014375,-0.0246875
4.295,-0.014375,-0.0246875
4.296,-0.01375,-0.0246875
4.297,-0.0134375,-0.0246875
4.298,-0.0134375,-0.0246875
4.299,-0.013125,-0.0246875
4.3,-0.013125,-0.0246875
4.301,-0.0128125,-0.0246875
4.302,-0.0121875,-0.0246875
4.303,-0.0121875,-0.0246875
4.304,-0.0115625,-0.0246875
4.305,-0.0115625,-0.0246875
4.306,-0.0109375,-0.0246875
4.307,-0.010625,-0.0246875
4.308,-0.0103125,-0.0246875
4.309,-0.0096875,-0.0246875
4.31,-0.009375,-0.0246875
4.311,-0.00875,-0.0246875
4.312,-0.0084375,-0.0246875
4.313,-0.008125,-0.024375
4.314,-0.0078125,-0.024375
4.315,-0.0078125,-0.024375
4.316,-0.0075,-0.024375
4.317,-0.0071875,-0.024375
4.318,-0.0071875,-0.024375
4.319,-0.0071875,-0.0240625
4.32,-0.006875,-0.0240625
4.321,-0.006875,-0.0240625
4.322,-0.006875,-0.0240625
4.323,-0.0065625,-0.0240625
4.324,-0.0065625,-0.02375
4.325,-0.00625,-0.02375
4.326,-0.00625,-0.02375
4.327,-0.0059375,-0.02375
4.328,-0.005625,-0.02375
4.329,-0.005625,-0.02375
4.33,-0.0053125,-0.0240625
4.331,-0.0053125,-0.0240625
4.332,-0.005,-0.0240625
4.333,-0.0046875,-0.0240625
4.334,-0.0046875,-0.0240625
4.335,-0.0046875,-0.0240625
4.336,-0.0046875,-0.0240625
4.337,-0.0046875,-0.0240625
4.338,-0.0046875,-0.0240625
4.339,-0.0046875,-0.0240625
4.34,-0.0046875,-0.0240625
4.341,-0.005,-0.0240625
4.342,-0.005,-0.0240625
4.343,-0.005,-0.0240625
4.344,-0.005,-0.0240625
4.345,-0.005,-0.0240625
4.346,-0.0046875,-0.0240625
4.347,-0.0046875,-0.0240625
4.348,-0.0046875,-0.0240625
4.349,-0.004375,-0.0240625
4.35,-0.004375,-0.0240625
4.351,-0.004375,-0.0240625
4.352,-0.004375,-0.0240625
4.353,-0.004375,-0.0240625
4.354,-0.004375,-0.0240625
4.355,-0.004375,-0.0240625
4.356,-0.004375,-0.024375
4.357,-0.004375,-0.024375
4.358,-0.0046875,-0.0240625
4.359,-0.0046875,-0.0240625
4.36,-0.005,-0.0240625
4.361,-0.0053125,-0.0240625
4.362,-0.0053125,-0.0240625
4.363,-0.005625,-0.0240625
4.364,-0.005625,-0.024375
4.365,-0.005625,-0.024375
4.366,-0.005625,-0.024375
4.367,-0.005625,-0.024375
4.368,-0.005625,-0.024375
4.369,-0.0059375,-0.024375
4.37,-0.0059375,-0.0240625
4.371,-0.0059375,-0.0240625
4.372,-0.0059375,-0.0240625
4.373,-0.0059375,-0.0240625
4.374,-0.0059375,-0.0240625
4.375,-0.00625,-0.0240625
4.376,-0.00625,-0.0240625
4.377,-0.0065625,-0.0240625
4.378,-0.006875,-0.0240625
4.379,-0.006875,-0.0240625
4.38,-0.0075,-0.02375
4.381,-0.0078125,-0.02375
4.382,-0.008125,-0.02375
4.383,-0.008125,-0.02375
4.384,-0.0084375,-0.02375
4.385,-0.00875,-0.02375
4.386,-0.00875,-0.0234375
4.387,-0.0090625,-0.0234375
4.388,-0.0090625,-0.0234375
4.389,-0.0090625,-0.0234375
4.39,-0.009375,-0.0234375
4.391,-0.009375,-0.0234375
4.392,-0.0096875,-0.0234375
4.393,-0.0096875,-0.0234375
4.394,-0.01,-0.0234375
4.395,-0.0103125,-0.0234375
4.396,-0.0103125,-0.0234375
4.397,-0.0109375,-0.0234375
4.398,-0.01125,-0.0234375
4.399,-0.0115625,-0.0234375
4.4,-0.011875,-0.0234375
4.401,-0.0121875,-0.0234375
4.402,-0.0125,-0.0234375
4.403,-0.0128125,-0.0234375
4.404,-0.0134375,-0.0234375
4.405,-0.0134375,-0.0234375
4.406,-0.0140625,-0.0234375
4.407,-0.0140625,-0.0234375
4.408,-0.014375,-0.0234375
4.409,-0.0146875,-0.0234375
4.41,-0.015,-0.0234375
4.411,-0.0153125,-0.0234375
4.412,-0.015625,-0.0234375
4.413,-0.0159375,-0.0234375
4.414,-0.01625,-0.023125
4.415,-0.016875,-0.023125
4.416,-0.0171875,-0.023125
4.417,-0.0175,-0.0228125
4.418,-0.018125,-0.0225
4.419,-0.0184375,-0.0221875
4.42,-0.01875,-0.0221875
4.421,-0.0190625,-0.021875
4.422,-0.0196875,-0.0215625
4.423,-0.02,-0.0215625
4.424,-0.02,-0.0209375
4.425,-0.020625,-0.020625
4.426,-0.020625,-0.020625
4.427,-0.020625,-0.02
4.428,-0.0209375,-0.02
4.429,-0.0209375,-0.0196875
4.43,-0.0209375,-0.019375
4.431,-0.02125,-0.0190625
4.432,-0.02125,-0.01875
4.433,-0.02125,-0.0184375
4.434,-0.02125,-0.018125
4.435,-0.02125,-0.018125
4.436,-0.02125,-0.0178125
4.437,-0.02125,-0.0171875
4.438,-0.02125,-0.0171875
4.439,-0.02125,-0.016875
4.44,-0.0209375,-0.0165625
4.441,-0.0209375,-0.01625
4.442,-0.0209375,-0.01625
4.443,-0.020625,-0.0159375
4.444,-0.020625,-0.0159375
4.445,-0.0203125,-0.0159375
4.446,-0.02,-0.015625
4.447,-0.02,-0.015625
4.448,-0.019375,-0.015625
4.449,-0.0190625,-0.015625
4.45,-0.0190625,-0.0153125
4.451,-0.01875,-0.0153125
4.452,-0.0184375,-0.015625
4.453,-0.018125,-0.015625
4.454,-0.018125,-0.015625
4.455,-0.018125,-0.015625
4.456,-0.018125,-0.015625
4.457,-0.0178125,-0.015625
4.458,-0.0178125,-0.015625
4.459,-0.0178125,-0.015625
4.46,-0.0178125,-0.015625
4.461,-0.0178125,-0.0159375
4.462,-0.0175,-0.0159375
4.463,-0.0175,-0.0159375
4.464,-0.0175,-0.01625
4.465,-0.0171875,-0.01625
4.466,-0.0171875,-0.01625
4.467,-0.016875,-0.0165625
4.468,-0.0165625,-0.0165625
4.469,-0.0165625,-0.016875
4.47,-0.01625,-0.016875
4.471,-0.0159375,-0.0171875
4.472,-0.0159375,-0.0175
4.473,-0.0159375,-0.0175
4.474,-0.0159375,-0.0178125
4.475,-0.0159375,-0.0178125
