Interval=,0.001 s,
ExcelDateTime=,4.54E+04,27:48.3
TimeFormat=,StartOfBlock,
DateFormat=,,
ChannelTitle=,Channel 3,Channel 4
Range=,10.000 mV,10.000 mV
0,0,0
0.001,0,-0.0003125
0.002,0,-0.0003125
0.003,-0.0003125,-0.0003125
0.004,-0.0003125,-0.0003125
0.005,-0.0003125,-0.0003125
0.006,-0.0003125,-0.000625
0.007,-0.0003125,-0.0009375
0.008,-0.0003125,-0.0009375
0.009,-0.0003125,-0.0015625
0.01,-0.0003125,-0.001875
0.011,-0.0003125,-0.0025
0.012,-0.0003125,-0.0028125
0.013,-0.0003125,-0.00375
0.014,-0.0003125,-0.0040625
0.015,0,-0.0046875
0.016,0,-0.005
0.017,0.000625,-0.005625
0.018,0.000625,-0.0059375
0.019,0.00125,-0.0059375
0.02,0.0015625,-0.0059375
0.021,0.001875,-0.0059375
0.022,0.0025,-0.005625
0.023,0.0028125,-0.0053125
0.024,0.0034375,-0.005
0.025,0.00375,-0.0046875
0.026,0.0040625,-0.0040625
0.027,0.004375,-0.00375
0.028,0.0046875,-0.0034375
0.029,0.005,-0.003125
0.03,0.0053125,-0.0028125
0.031,0.0053125,-0.0028125
0.032,0.005625,-0.0028125
0.033,0.005625,-0.0028125
0.034,0.005625,-0.0028125
0.035,0.0059375,-0.0025
0.036,0.0059375,-0.0025
0.037,0.00625,-0.0025
0.038,0.0065625,-0.001875
0.039,0.0065625,-0.0015625
0.04,0.0071875,-0.0009375
0.041,0.0075,-0.0003125
0.042,0.0075,0.000625
0.043,0.008125,0.0015625
0.044,0.008125,0.0028125
0.045,0.008125,0.0034375
0.046,0.008125,0.0046875
0.047,0.008125,0.005625
0.048,0.008125,0.00625
0.049,0.0078125,0.006875
0.05,0.0071875,0.0071875
0.051,0.006875,0.0075
0.052,0.0065625,0.0075
0.053,0.005625,0.0071875
0.054,0.0053125,0.006875
0.055,0.005,0.0065625
0.056,0.004375,0.0059375
0.057,0.00375,0.005625
0.058,0.0034375,0.0053125
0.059,0.003125,0.0053125
0.06,0.003125,0.005
0.061,0.0028125,0.005
0.062,0.0028125,0.005625
0.063,0.0028125,0.005625
0.064,0.0025,0.00625
0.065,0.0025,0.0065625
0.066,0.0025,0.0071875
0.067,0.0021875,0.0075
0.068,0.001875,0.0078125
0.069,0.0015625,0.008125
0.07,0.00125,0.008125
0.071,0.000625,0.0078125
0.072,0,0.0075
0.073,-0.0003125,0.0071875
0.074,-0.000625,0.0065625
0.075,-0.00125,0.00625
0.076,-0.0015625,0.0053125
0.077,-0.0021875,0.005
0.078,-0.0021875,0.0046875
0.079,-0.0025,0.004375
0.08,-0.0028125,0.004375
0.081,-0.0028125,0.004375
0.082,-0.0028125,0.0046875
0.083,-0.0028125,0.0053125
0.084,-0.0028125,0.005625
0.085,-0.0028125,0.0065625
0.086,-0.0028125,0.0071875
0.087,-0.0028125,0.0075
0.088,-0.003125,0.0078125
0.089,-0.003125,0.0084375
0.09,-0.0034375,0.0084375
0.091,-0.0040625,0.0084375
0.092,-0.0040625,0.008125
0.093,-0.0046875,0.0078125
0.094,-0.005,0.0075
0.095,-0.0053125,0.0071875
0.096,-0.005625,0.006875
0.097,-0.005625,0.00625
0.098,-0.0059375,0.00625
0.099,-0.0059375,0.0059375
0.1,-0.0059375,0.00625
0.101,-0.005625,0.0065625
0.102,-0.005625,0.006875
0.103,-0.0053125,0.0071875
0.104,-0.0053125,0.0078125
0.105,-0.005,0.00875
0.106,-0.005,0.009375
0.107,-0.0046875,0.01
0.108,-0.0046875,0.010625
0.109,-0.005,0.0109375
0.11,-0.005,0.0109375
0.111,-0.005,0.0109375
0.112,-0.0053125,0.010625
0.113,-0.0053125,0.0103125
0.114,-0.0053125,0.01
0.115,-0.005625,0.0090625
0.116,-0.005625,0.0084375
0.117,-0.0053125,0.0078125
0.118,-0.0053125,0.0071875
0.119,-0.0053125,0.006875
0.12,-0.0046875,0.00625
0.121,-0.004375,0.00625
0.122,-0.004375,0.00625
0.123,-0.00375,0.00625
0.124,-0.0034375,0.0065625
0.125,-0.003125,0.006875
0.126,-0.0028125,0.006875
0.127,-0.0025,0.006875
0.128,-0.0021875,0.006875
0.129,-0.0021875,0.006875
0.13,-0.0021875,0.0065625
0.131,-0.0021875,0.00625
0.132,-0.0021875,0.005625
0.133,-0.0025,0.0046875
0.134,-0.0025,0.00375
0.135,-0.0025,0.003125
0.136,-0.0025,0.001875
0.137,-0.0025,0.00125
0.138,-0.0025,0.0003125
0.139,-0.0021875,-0.000625
0.14,-0.001875,-0.000625
0.141,-0.001875,-0.00125
0.142,-0.0015625,-0.00125
0.143,-0.00125,-0.00125
0.144,-0.0009375,-0.00125
0.145,-0.000625,-0.0009375
0.146,-0.000625,-0.000625
0.147,-0.0003125,-0.0003125
0.148,-0.0003125,-0.0003125
0.149,-0.0003125,-0.0003125
0.15,-0.000625,-0.0003125
0.151,-0.000625,-0.000625
0.152,-0.0009375,-0.00125
0.153,-0.00125,-0.001875
0.154,-0.00125,-0.0021875
0.155,-0.001875,-0.0028125
0.156,-0.001875,-0.0034375
0.157,-0.001875,-0.00375
0.158,-0.0021875,-0.004375
0.159,-0.0021875,-0.0046875
0.16,-0.0021875,-0.0046875
0.161,-0.0021875,-0.0046875
0.162,-0.001875,-0.004375
0.163,-0.001875,-0.00375
0.164,-0.0015625,-0.0034375
0.165,-0.0015625,-0.003125
0.166,-0.0015625,-0.0021875
0.167,-0.001875,-0.0015625
0.168,-0.001875,-0.00125
0.169,-0.001875,-0.000625
0.17,-0.0021875,-0.0003125
0.171,-0.0025,-0.0003125
0.172,-0.0028125,-0.0003125
0.173,-0.003125,-0.000625
0.174,-0.0034375,-0.000625
0.175,-0.00375,-0.0009375
0.176,-0.0040625,-0.0015625
0.177,-0.004375,-0.0015625
0.178,-0.004375,-0.0015625
0.179,-0.004375,-0.0015625
0.18,-0.004375,-0.0015625
0.181,-0.004375,-0.00125
0.182,-0.004375,-0.0009375
0.183,-0.004375,0
0.184,-0.0040625,0.0003125
0.185,-0.0040625,0.00125
0.186,-0.0040625,0.0015625
0.187,-0.0040625,0.0025
0.188,-0.0040625,0.0028125
0.189,-0.0040625,0.0034375
0.19,-0.004375,0.0034375
0.191,-0.0046875,0.0034375
0.192,-0.0046875,0.0034375
0.193,-0.0053125,0.003125
0.194,-0.005625,0.0028125
0.195,-0.005625,0.0021875
0.196,-0.0059375,0.001875
0.197,-0.0059375,0.00125
0.198,-0.0059375,0.0009375
0.199,-0.0059375,0.000625
0.2,-0.0059375,0.000625
0.201,-0.005625,0.000625
0.202,-0.005625,0.000625
0.203,-0.0053125,0.0009375
0.204,-0.005,0.00125
0.205,-0.005,0.0015625
0.206,-0.0046875,0.0021875
0.207,-0.0046875,0.0025
0.208,-0.0046875,0.0028125
0.209,-0.0046875,0.003125
0.21,-0.0046875,0.003125
0.211,-0.005,0.003125
0.212,-0.0053125,0.0028125
0.213,-0.005625,0.0025
0.214,-0.005625,0.001875
0.215,-0.0059375,0.0015625
0.216,-0.0059375,0.00125
0.217,-0.0059375,0.000625
0.218,-0.00625,0.0003125
0.219,-0.0059375,0.0003125
0.22,-0.0059375,0.0003125
0.221,-0.0059375,0.000625
0.222,-0.005625,0.0009375
0.223,-0.005625,0.00125
0.224,-0.005625,0.0021875
0.225,-0.0053125,0.0025
0.226,-0.0053125,0.0034375
0.227,-0.0053125,0.0040625
0.228,-0.0053125,0.0046875
0.229,-0.005625,0.005
0.23,-0.005625,0.0053125
0.231,-0.0059375,0.005625
0.232,-0.00625,0.005625
0.233,-0.0065625,0.0053125
0.234,-0.006875,0.005
0.235,-0.0071875,0.0046875
0.236,-0.0075,0.004375
0.237,-0.0075,0.00375
0.238,-0.0078125,0.0034375
0.239,-0.0078125,0.0034375
0.24,-0.0075,0.0034375
0.241,-0.0075,0.0034375
0.242,-0.0075,0.0034375
0.243,-0.0071875,0.00375
0.244,-0.0071875,0.0040625
0.245,-0.0071875,0.0046875
0.246,-0.006875,0.0046875
0.247,-0.006875,0.0053125
0.248,-0.006875,0.0053125
0.249,-0.0071875,0.0053125
0.25,-0.0071875,0.0053125
0.251,-0.0071875,0.005
0.252,-0.0075,0.0046875
0.253,-0.0078125,0.004375
0.254,-0.008125,0.0034375
0.255,-0.008125,0.003125
0.256,-0.008125,0.0021875
0.257,-0.0084375,0.00125
0.258,-0.0084375,0.0009375
0.259,-0.008125,0.000625
0.26,-0.008125,0
0.261,-0.008125,0
0.262,-0.0078125,0
0.263,-0.0075,0
0.264,-0.0071875,0.000625
0.265,-0.0071875,0.0009375
0.266,-0.006875,0.0009375
0.267,-0.006875,0.0015625
0.268,-0.006875,0.001875
0.269,-0.006875,0.001875
0.27,-0.006875,0.001875
0.271,-0.0071875,0.001875
0.272,-0.0071875,0.001875
0.273,-0.0075,0.0015625
0.274,-0.0078125,0.00125
0.275,-0.008125,0.0009375
0.276,-0.008125,0.000625
0.277,-0.008125,0.0003125
0.278,-0.0084375,0
0.279,-0.0084375,0
0.28,-0.008125,0
0.281,-0.008125,0.0003125
0.282,-0.008125,0.000625
0.283,-0.0078125,0.0009375
0.284,-0.0075,0.001875
0.285,-0.0075,0.0021875
0.286,-0.0071875,0.003125
0.287,-0.0071875,0.00375
0.288,-0.0071875,0.004375
0.289,-0.0071875,0.0046875
0.29,-0.0071875,0.0053125
0.291,-0.0071875,0.0053125
0.292,-0.0071875,0.0053125
0.293,-0.0075,0.0053125
0.294,-0.0078125,0.005
0.295,-0.0078125,0.005
0.296,-0.008125,0.0046875
0.297,-0.008125,0.004375
0.298,-0.008125,0.00375
0.299,-0.008125,0.00375
0.3,-0.008125,0.00375
0.301,-0.0078125,0.00375
0.302,-0.0078125,0.0040625
0.303,-0.0075,0.0046875
0.304,-0.0071875,0.005
0.305,-0.006875,0.0053125
0.306,-0.0065625,0.00625
0.307,-0.0065625,0.0065625
0.308,-0.00625,0.0071875
0.309,-0.00625,0.0075
0.31,-0.00625,0.0078125
0.311,-0.00625,0.0078125
0.312,-0.0065625,0.0078125
0.313,-0.0065625,0.0075
0.314,-0.0065625,0.0075
0.315,-0.006875,0.006875
0.316,-0.006875,0.0065625
0.317,-0.006875,0.00625
0.318,-0.006875,0.0059375
0.319,-0.006875,0.005625
0.32,-0.006875,0.005625
0.321,-0.006875,0.005625
0.322,-0.0065625,0.005625
0.323,-0.00625,0.0059375
0.324,-0.0059375,0.00625
0.325,-0.0059375,0.0065625
0.326,-0.005625,0.006875
0.327,-0.0053125,0.0075
0.328,-0.0053125,0.0078125
0.329,-0.0053125,0.008125
0.33,-0.0053125,0.008125
0.331,-0.0053125,0.008125
0.332,-0.0053125,0.0078125
0.333,-0.005625,0.0075
0.334,-0.005625,0.006875
0.335,-0.005625,0.0065625
0.336,-0.0059375,0.005625
0.337,-0.0059375,0.0053125
0.338,-0.0059375,0.0046875
0.339,-0.005625,0.0040625
0.34,-0.005625,0.0040625
0.341,-0.005625,0.0034375
0.342,-0.0053125,0.0034375
0.343,-0.005,0.0034375
0.344,-0.0046875,0.0034375
0.345,-0.0046875,0.00375
0.346,-0.004375,0.00375
0.347,-0.0040625,0.0040625
0.348,-0.0040625,0.004375
0.349,-0.0040625,0.004375
0.35,-0.0040625,0.004375
0.351,-0.0040625,0.0040625
0.352,-0.0040625,0.00375
0.353,-0.0040625,0.0034375
0.354,-0.004375,0.003125
0.355,-0.004375,0.0025
0.356,-0.004375,0.0015625
0.357,-0.004375,0.00125
0.358,-0.004375,0.0009375
0.359,-0.004375,0.0003125
0.36,-0.0040625,0
0.361,-0.00375,0
0.362,-0.00375,0
0.363,-0.003125,0
0.364,-0.003125,0.0003125
0.365,-0.0025,0.000625
0.366,-0.0021875,0.00125
0.367,-0.0021875,0.00125
0.368,-0.001875,0.001875
0.369,-0.001875,0.001875
0.37,-0.001875,0.0021875
0.371,-0.001875,0.0021875
0.372,-0.001875,0.001875
0.373,-0.001875,0.0015625
0.374,-0.001875,0.00125
0.375,-0.001875,0.0009375
0.376,-0.0021875,0.0003125
0.377,-0.0021875,0
0.378,-0.001875,-0.0003125
0.379,-0.001875,-0.000625
0.38,-0.001875,-0.000625
0.381,-0.001875,-0.000625
0.382,-0.0015625,-0.000625
0.383,-0.00125,-0.000625
0.384,-0.0009375,0
0.385,-0.0009375,0.0003125
0.386,-0.0009375,0.000625
0.387,-0.000625,0.00125
0.388,-0.000625,0.00125
0.389,-0.0009375,0.001875
0.39,-0.0009375,0.001875
0.391,-0.0009375,0.001875
0.392,-0.00125,0.0015625
0.393,-0.0015625,0.00125
0.394,-0.0015625,0.0009375
0.395,-0.001875,0.000625
0.396,-0.0021875,0
0.397,-0.0021875,-0.0003125
0.398,-0.0025,-0.0009375
0.399,-0.0025,-0.00125
0.4,-0.0025,-0.00125
0.401,-0.0021875,-0.0015625
0.402,-0.0021875,-0.0015625
0.403,-0.0021875,-0.00125
0.404,-0.001875,-0.00125
0.405,-0.001875,-0.0009375
0.406,-0.001875,-0.0003125
0.407,-0.0015625,-0.0003125
0.408,-0.0015625,0.0003125
0.409,-0.0015625,0.0003125
0.41,-0.0015625,0.0003125
0.411,-0.0015625,0.0003125
0.412,-0.001875,0
0.413,-0.001875,-0.0003125
0.414,-0.001875,-0.0009375
0.415,-0.0021875,-0.00125
0.416,-0.0021875,-0.0015625
0.417,-0.0021875,-0.0021875
0.418,-0.001875,-0.0028125
0.419,-0.001875,-0.003125
0.42,-0.001875,-0.0034375
0.421,-0.0015625,-0.0034375
0.422,-0.00125,-0.0034375
0.423,-0.0009375,-0.0034375
0.424,-0.0009375,-0.003125
0.425,-0.000625,-0.003125
0.426,-0.000625,-0.0025
0.427,-0.0003125,-0.0025
0.428,-0.0003125,-0.0021875
0.429,-0.000625,-0.0021875
0.43,-0.000625,-0.0021875
0.431,-0.000625,-0.0021875
0.432,-0.0009375,-0.0025
0.433,-0.00125,-0.0028125
0.434,-0.0015625,-0.003125
0.435,-0.0015625,-0.0040625
0.436,-0.0021875,-0.004375
0.437,-0.0021875,-0.005
0.438,-0.0021875,-0.0053125
0.439,-0.0025,-0.0059375
0.44,-0.0025,-0.00625
0.441,-0.0025,-0.0065625
0.442,-0.0025,-0.0065625
0.443,-0.0025,-0.00625
0.444,-0.0025,-0.00625
0.445,-0.0021875,-0.00625
0.446,-0.0021875,-0.005625
0.447,-0.0025,-0.005625
0.448,-0.0025,-0.0053125
0.449,-0.0025,-0.0053125
0.45,-0.0028125,-0.0053125
0.451,-0.0028125,-0.0053125
0.452,-0.003125,-0.0053125
0.453,-0.0034375,-0.005625
0.454,-0.0034375,-0.0059375
0.455,-0.0040625,-0.00625
0.456,-0.0040625,-0.0065625
0.457,-0.004375,-0.006875
0.458,-0.004375,-0.006875
0.459,-0.004375,-0.006875
0.46,-0.0046875,-0.006875
0.461,-0.004375,-0.0065625
0.462,-0.004375,-0.0059375
0.463,-0.004375,-0.005625
0.464,-0.004375,-0.0046875
0.465,-0.004375,-0.0040625
0.466,-0.004375,-0.003125
0.467,-0.0040625,-0.0025
0.468,-0.004375,-0.0015625
0.469,-0.004375,-0.0009375
0.47,-0.004375,0
0.471,-0.004375,0
0.472,-0.0046875,0.000625
0.473,-0.0046875,0.000625
0.474,-0.005,0.0009375
0.475,-0.005,0.0009375
0.476,-0.005,0.0009375
0.477,-0.005,0.0009375
0.478,-0.005,0.0009375
0.479,-0.005,0.0009375
0.48,-0.0046875,0.0009375
0.481,-0.004375,0.00125
0.482,-0.0040625,0.0015625
0.483,-0.0034375,0.0021875
0.484,-0.003125,0.0025
0.485,-0.0028125,0.0028125
0.486,-0.0021875,0.00375
0.487,-0.001875,0.0040625
0.488,-0.00125,0.004375
0.489,-0.0009375,0.0046875
0.49,-0.000625,0.005
0.491,-0.0003125,0.005
0.492,0.0003125,0.0046875
0.493,0.0003125,0.0046875
0.494,0.000625,0.0040625
0.495,0.0009375,0.00375
0.496,0.00125,0.0034375
0.497,0.001875,0.0028125
0.498,0.0021875,0.0025
0.499,0.0025,0.001875
0.5,0.003125,0.001875
0.501,0.0034375,0.001875
0.502,0.004375,0.001875
0.503,0.0046875,0.001875
0.504,0.0053125,0.0021875
0.505,0.005625,0.0028125
0.506,0.00625,0.003125
0.507,0.00625,0.0034375
0.508,0.006875,0.0040625
0.509,0.006875,0.0040625
0.51,0.006875,0.0046875
0.511,0.006875,0.0046875
0.512,0.006875,0.0046875
0.513,0.006875,0.0046875
0.514,0.006875,0.004375
0.515,0.0065625,0.004375
0.516,0.00625,0.0040625
0.517,0.00625,0.0040625
0.518,0.0059375,0.00375
0.519,0.0059375,0.00375
0.52,0.0059375,0.0040625
0.521,0.0059375,0.0040625
0.522,0.0059375,0.004375
0.523,0.0059375,0.0046875
0.524,0.0059375,0.0053125
0.525,0.0059375,0.0059375
0.526,0.0059375,0.00625
0.527,0.005625,0.0065625
0.528,0.005625,0.0071875
0.529,0.005625,0.0075
0.53,0.0053125,0.0078125
0.531,0.005,0.0078125
0.532,0.005,0.0078125
0.533,0.0046875,0.0075
0.534,0.004375,0.0071875
0.535,0.0040625,0.0065625
0.536,0.0040625,0.00625
0.537,0.0040625,0.005625
0.538,0.00375,0.0053125
0.539,0.00375,0.005
0.54,0.0040625,0.0046875
0.541,0.0040625,0.004375
0.542,0.0040625,0.004375
0.543,0.004375,0.004375
0.544,0.0046875,0.004375
0.545,0.0046875,0.0046875
0.546,0.005,0.0046875
0.547,0.0053125,0.0046875
0.548,0.0053125,0.0046875
0.549,0.005625,0.0046875
0.55,0.005625,0.0046875
0.551,0.005625,0.004375
0.552,0.005625,0.00375
0.553,0.005625,0.0034375
0.554,0.005625,0.0025
0.555,0.0053125,0.0021875
0.556,0.0053125,0.00125
0.557,0.005625,0.000625
0.558,0.005625,0.0003125
0.559,0.005625,-0.000625
0.56,0.005625,-0.0009375
0.561,0.0059375,-0.00125
0.562,0.00625,-0.0015625
0.563,0.00625,-0.0015625
0.564,0.0065625,-0.0015625
0.565,0.006875,-0.0015625
0.566,0.0071875,-0.00125
0.567,0.0071875,-0.00125
0.568,0.0071875,-0.00125
0.569,0.0071875,-0.00125
0.57,0.0071875,-0.00125
0.571,0.0071875,-0.00125
0.572,0.006875,-0.0015625
0.573,0.006875,-0.001875
0.574,0.006875,-0.0021875
0.575,0.0065625,-0.0028125
0.576,0.0065625,-0.003125
0.577,0.00625,-0.0034375
0.578,0.00625,-0.0040625
0.579,0.00625,-0.004375
0.58,0.00625,-0.004375
0.581,0.0065625,-0.004375
0.582,0.0065625,-0.004375
0.583,0.0065625,-0.0040625
0.584,0.0065625,-0.00375
0.585,0.0065625,-0.003125
0.586,0.0065625,-0.0028125
0.587,0.0065625,-0.0021875
0.588,0.0065625,-0.001875
0.589,0.00625,-0.0015625
0.59,0.00625,-0.00125
0.591,0.005625,-0.00125
0.592,0.005625,-0.0009375
0.593,0.005,-0.00125
0.594,0.0046875,-0.00125
0.595,0.004375,-0.00125
0.596,0.0040625,-0.001875
0.597,0.00375,-0.001875
0.598,0.0034375,-0.0021875
0.599,0.003125,-0.0021875
0.6,0.003125,-0.0021875
0.601,0.0028125,-0.0021875
0.602,0.0028125,-0.0021875
0.603,0.0028125,-0.001875
0.604,0.0025,-0.0015625
0.605,0.0025,-0.00125
0.606,0.0025,-0.000625
0.607,0.0025,-0.000625
0.608,0.0025,0
0.609,0.0021875,0
0.61,0.0021875,0.0003125
0.611,0.001875,0.0003125
0.612,0.0015625,0
0.613,0.0015625,0
0.614,0.00125,-0.0003125
0.615,0.00125,-0.0009375
0.616,0.00125,-0.00125
0.617,0.00125,-0.0015625
0.618,0.00125,-0.001875
0.619,0.00125,-0.0021875
0.62,0.0015625,-0.0021875
0.621,0.001875,-0.0021875
0.622,0.0021875,-0.0021875
0.623,0.0025,-0.001875
0.624,0.0028125,-0.0015625
0.625,0.003125,-0.0009375
0.626,0.0034375,-0.000625
0.627,0.00375,0
0.628,0.0040625,0.0003125
0.629,0.004375,0.000625
0.63,0.004375,0.0009375
0.631,0.004375,0.00125
0.632,0.004375,0.00125
0.633,0.004375,0.00125
0.634,0.004375,0.00125
0.635,0.004375,0.00125
0.636,0.004375,0.0009375
0.637,0.004375,0.0009375
0.638,0.004375,0.0009375
0.639,0.0046875,0.0009375
0.64,0.0046875,0.0009375
0.641,0.0046875,0.00125
0.642,0.005,0.0015625
0.643,0.005,0.0021875
0.644,0.005,0.0028125
0.645,0.0053125,0.003125
0.646,0.0053125,0.0034375
0.647,0.0053125,0.0040625
0.648,0.0053125,0.004375
0.649,0.005,0.005
0.65,0.005,0.005
0.651,0.005,0.005
0.652,0.0046875,0.005
0.653,0.0046875,0.0046875
0.654,0.004375,0.004375
0.655,0.0040625,0.00375
0.656,0.0040625,0.0034375
0.657,0.00375,0.0028125
0.658,0.00375,0.0025
0.659,0.0040625,0.001875
0.66,0.0040625,0.001875
0.661,0.0040625,0.00125
0.662,0.004375,0.00125
0.663,0.004375,0.00125
0.664,0.0046875,0.00125
0.665,0.005,0.00125
0.666,0.005,0.00125
0.667,0.0053125,0.0015625
0.668,0.0053125,0.0015625
0.669,0.0053125,0.00125
0.67,0.005625,0.00125
0.671,0.0053125,0.00125
0.672,0.0053125,0.000625
0.673,0.0053125,0.0003125
0.674,0.0053125,0
0.675,0.0053125,-0.000625
0.676,0.0053125,-0.00125
0.677,0.005,-0.0015625
0.678,0.005,-0.001875
0.679,0.005,-0.0021875
0.68,0.005,-0.0025
0.681,0.0053125,-0.0025
0.682,0.0053125,-0.0025
0.683,0.0053125,-0.0021875
0.684,0.0053125,-0.001875
0.685,0.0053125,-0.0015625
0.686,0.0053125,-0.00125
0.687,0.005,-0.000625
0.688,0.005,-0.0003125
0.689,0.0046875,-0.0003125
0.69,0.0046875,0
0.691,0.0040625,0
0.692,0.00375,-0.0003125
0.693,0.0034375,-0.0003125
0.694,0.003125,-0.000625
0.695,0.0025,-0.0009375
0.696,0.0021875,-0.00125
0.697,0.001875,-0.0015625
0.698,0.0015625,-0.0021875
0.699,0.0015625,-0.0021875
0.7,0.00125,-0.0025
0.701,0.0009375,-0.0025
0.702,0.000625,-0.0025
0.703,0.000625,-0.0025
0.704,0.000625,-0.0021875
0.705,0.0003125,-0.0021875
0.706,0.0003125,-0.001875
0.707,0,-0.0015625
0.708,-0.0003125,-0.0015625
0.709,-0.0003125,-0.00125
0.71,-0.000625,-0.00125
0.711,-0.0009375,-0.0015625
0.712,-0.00125,-0.0015625
0.713,-0.0015625,-0.001875
0.714,-0.0021875,-0.0021875
0.715,-0.0021875,-0.0025
0.716,-0.0028125,-0.0025
0.717,-0.0028125,-0.0028125
0.718,-0.003125,-0.003125
0.719,-0.0034375,-0.003125
0.72,-0.0034375,-0.003125
0.721,-0.0034375,-0.0028125
0.722,-0.0034375,-0.0021875
0.723,-0.0034375,-0.001875
0.724,-0.00375,-0.0015625
0.725,-0.00375,-0.000625
0.726,-0.00375,-0.0003125
0.727,-0.00375,0.000625
0.728,-0.00375,0.0009375
0.729,-0.0040625,0.0015625
0.73,-0.0040625,0.001875
0.731,-0.0040625,0.0021875
0.732,-0.004375,0.0021875
0.733,-0.004375,0.0025
0.734,-0.0046875,0.0025
0.735,-0.005,0.0021875
0.736,-0.005,0.0021875
0.737,-0.005,0.0021875
0.738,-0.005,0.001875
0.739,-0.005,0.001875
0.74,-0.0046875,0.001875
0.741,-0.004375,0.0021875
0.742,-0.004375,0.0021875
0.743,-0.0040625,0.0025
0.744,-0.00375,0.0025
0.745,-0.0034375,0.003125
0.746,-0.003125,0.003125
0.747,-0.003125,0.003125
0.748,-0.0028125,0.0034375
0.749,-0.0025,0.0034375
0.75,-0.0021875,0.0034375
0.751,-0.0021875,0.003125
0.752,-0.001875,0.0028125
0.753,-0.001875,0.0021875
0.754,-0.001875,0.001875
0.755,-0.0015625,0.0015625
0.756,-0.0015625,0.0009375
0.757,-0.00125,0.000625
0.758,-0.00125,0
0.759,-0.000625,-0.0003125
0.76,-0.000625,-0.0003125
0.761,-0.0003125,-0.0003125
0.762,0,-0.0003125
0.763,0.0003125,0
0.764,0.000625,0.0003125
0.765,0.000625,0.000625
0.766,0.0009375,0.0009375
0.767,0.00125,0.0015625
0.768,0.00125,0.0015625
0.769,0.00125,0.0021875
0.77,0.00125,0.0021875
0.771,0.00125,0.0021875
0.772,0.00125,0.0021875
0.773,0.0009375,0.0021875
0.774,0.0009375,0.0021875
0.775,0.000625,0.001875
0.776,0.000625,0.0015625
0.777,0.000625,0.0015625
0.778,0.0003125,0.0015625
0.779,0.0003125,0.00125
0.78,0.0003125,0.00125
0.781,0.0003125,0.0015625
0.782,0.0003125,0.0015625
0.783,0.0003125,0.001875
0.784,0.0003125,0.0025
0.785,0.0003125,0.0025
0.786,0.0003125,0.003125
0.787,0.0003125,0.0034375
0.788,0.0003125,0.00375
0.789,0.0003125,0.00375
0.79,0,0.00375
0.791,0,0.00375
0.792,-0.0003125,0.00375
0.793,-0.000625,0.0034375
0.794,-0.000625,0.003125
0.795,-0.0009375,0.0028125
0.796,-0.0009375,0.0021875
0.797,-0.00125,0.001875
0.798,-0.00125,0.0015625
0.799,-0.00125,0.00125
0.8,-0.00125,0.0009375
0.801,-0.0009375,0.0009375
0.802,-0.0009375,0.0009375
0.803,-0.0009375,0.0009375
0.804,-0.000625,0.00125
0.805,-0.000625,0.00125
0.806,-0.000625,0.0015625
0.807,-0.000625,0.001875
0.808,-0.000625,0.001875
0.809,-0.000625,0.0021875
0.81,-0.0009375,0.0021875
0.811,-0.0009375,0.0021875
0.812,-0.0009375,0.001875
0.813,-0.00125,0.0015625
0.814,-0.0015625,0.0015625
0.815,-0.001875,0.00125
0.816,-0.001875,0.0009375
0.817,-0.0021875,0.000625
0.818,-0.0021875,0.0003125
0.819,-0.0021875,0.0003125
0.82,-0.0025,0.0003125
0.821,-0.0025,0.0003125
0.822,-0.0025,0.0003125
0.823,-0.0025,0.000625
0.824,-0.0025,0.0009375
0.825,-0.0028125,0.0015625
0.826,-0.0028125,0.001875
0.827,-0.0028125,0.0021875
0.828,-0.003125,0.0025
0.829,-0.0034375,0.003125
0.83,-0.00375,0.003125
0.831,-0.0040625,0.0034375
0.832,-0.004375,0.0034375
0.833,-0.005,0.0034375
0.834,-0.0053125,0.0034375
0.835,-0.005625,0.0034375
0.836,-0.00625,0.0034375
0.837,-0.0065625,0.0034375
0.838,-0.0065625,0.0034375
0.839,-0.0071875,0.0034375
0.84,-0.0071875,0.00375
0.841,-0.0075,0.004375
0.842,-0.0078125,0.0046875
0.843,-0.0078125,0.005
0.844,-0.008125,0.0059375
0.845,-0.008125,0.0065625
0.846,-0.0084375,0.006875
0.847,-0.00875,0.0078125
0.848,-0.00875,0.0084375
0.849,-0.0090625,0.00875
0.85,-0.0090625,0.0090625
0.851,-0.009375,0.009375
0.852,-0.01,0.0096875
0.853,-0.01,0.0096875
0.854,-0.0103125,0.0096875
0.855,-0.010625,0.0096875
0.856,-0.010625,0.009375
0.857,-0.0109375,0.009375
0.858,-0.0109375,0.009375
0.859,-0.0109375,0.0090625
0.86,-0.0109375,0.0090625
0.861,-0.010625,0.009375
0.862,-0.010625,0.009375
0.863,-0.0103125,0.009375
0.864,-0.01,0.0096875
0.865,-0.01,0.01
0.866,-0.01,0.01
0.867,-0.0096875,0.01
0.868,-0.0096875,0.01
0.869,-0.0096875,0.01
0.87,-0.009375,0.01
0.871,-0.0096875,0.0096875
0.872,-0.0096875,0.0090625
0.873,-0.0096875,0.00875
0.874,-0.0096875,0.0084375
0.875,-0.0096875,0.0075
0.876,-0.0096875,0.0071875
0.877,-0.009375,0.00625
0.878,-0.009375,0.0059375
0.879,-0.009375,0.005625
0.88,-0.0090625,0.005
0.881,-0.0090625,0.005
0.882,-0.0090625,0.0046875
0.883,-0.00875,0.0046875
0.884,-0.00875,0.005
0.885,-0.0084375,0.005
0.886,-0.0084375,0.0053125
0.887,-0.008125,0.0053125
0.888,-0.008125,0.0053125
0.889,-0.008125,0.005625
0.89,-0.008125,0.005625
0.891,-0.0084375,0.005625
0.892,-0.0084375,0.005625
0.893,-0.00875,0.0053125
0.894,-0.00875,0.005
0.895,-0.00875,0.0046875
0.896,-0.0090625,0.004375
0.897,-0.0090625,0.004375
0.898,-0.0090625,0.0040625
0.899,-0.0090625,0.0040625
0.9,-0.00875,0.0040625
0.901,-0.00875,0.0040625
0.902,-0.00875,0.004375
0.903,-0.0084375,0.0046875
0.904,-0.0084375,0.0046875
0.905,-0.008125,0.005
0.906,-0.008125,0.0053125
0.907,-0.0078125,0.005625
0.908,-0.0078125,0.0059375
0.909,-0.0078125,0.0059375
0.91,-0.0075,0.0059375
0.911,-0.0075,0.0059375
0.912,-0.0075,0.005625
0.913,-0.0075,0.0053125
0.914,-0.0075,0.005
0.915,-0.0075,0.0046875
0.916,-0.0075,0.004375
0.917,-0.0075,0.0040625
0.918,-0.0075,0.0034375
0.919,-0.0071875,0.0034375
0.92,-0.0071875,0.003125
0.921,-0.006875,0.003125
0.922,-0.006875,0.0034375
0.923,-0.0065625,0.0034375
0.924,-0.00625,0.00375
0.925,-0.00625,0.0040625
0.926,-0.0059375,0.0040625
0.927,-0.0059375,0.004375
0.928,-0.0059375,0.0046875
0.929,-0.0059375,0.0046875
0.93,-0.0059375,0.0046875
0.931,-0.0059375,0.0046875
0.932,-0.00625,0.0046875
0.933,-0.00625,0.004375
0.934,-0.00625,0.0040625
0.935,-0.0065625,0.0040625
0.936,-0.006875,0.0034375
0.937,-0.006875,0.003125
0.938,-0.006875,0.003125
0.939,-0.0071875,0.0028125
0.94,-0.0071875,0.0028125
0.941,-0.0071875,0.0028125
0.942,-0.0071875,0.0028125
0.943,-0.0071875,0.0028125
0.944,-0.0071875,0.0028125
0.945,-0.0071875,0.003125
0.946,-0.0071875,0.003125
0.947,-0.0071875,0.003125
0.948,-0.0075,0.003125
0.949,-0.0075,0.003125
0.95,-0.0075,0.003125
0.951,-0.0078125,0.0025
0.952,-0.0078125,0.0021875
0.953,-0.008125,0.001875
0.954,-0.008125,0.0009375
0.955,-0.0084375,0.0003125
0.956,-0.0084375,0
0.957,-0.0084375,-0.000625
0.958,-0.00875,-0.0015625
0.959,-0.00875,-0.001875
0.96,-0.00875,-0.0021875
0.961,-0.0084375,-0.0028125
0.962,-0.0084375,-0.003125
0.963,-0.0084375,-0.003125
0.964,-0.0084375,-0.003125
0.965,-0.008125,-0.0034375
0.966,-0.008125,-0.0034375
0.967,-0.008125,-0.00375
0.968,-0.008125,-0.00375
0.969,-0.008125,-0.00375
0.97,-0.008125,-0.0040625
0.971,-0.0084375,-0.0046875
0.972,-0.0084375,-0.005
0.973,-0.0084375,-0.0053125
0.974,-0.00875,-0.00625
0.975,-0.00875,-0.0065625
0.976,-0.00875,-0.006875
0.977,-0.0090625,-0.0075
0.978,-0.0090625,-0.008125
0.979,-0.0090625,-0.0084375
0.98,-0.0090625,-0.00875
0.981,-0.0090625,-0.00875
0.982,-0.0090625,-0.00875
0.983,-0.00875,-0.00875
0.984,-0.00875,-0.0084375
0.985,-0.00875,-0.008125
0.986,-0.00875,-0.0078125
0.987,-0.00875,-0.0078125
0.988,-0.00875,-0.0071875
0.989,-0.0090625,-0.0071875
0.99,-0.0090625,-0.006875
0.991,-0.009375,-0.006875
0.992,-0.009375,-0.0071875
0.993,-0.009375,-0.0071875
0.994,-0.0096875,-0.0071875
0.995,-0.0096875,-0.0075
0.996,-0.01,-0.0078125
0.997,-0.01,-0.008125
0.998,-0.01,-0.0084375
0.999,-0.01,-0.0084375
1,-0.01,-0.00875
1.001,-0.0096875,-0.00875
1.002,-0.0096875,-0.0084375
1.003,-0.009375,-0.0084375
1.004,-0.0090625,-0.0084375
1.005,-0.0090625,-0.008125
1.006,-0.00875,-0.0078125
1.007,-0.00875,-0.0075
1.008,-0.00875,-0.0075
1.009,-0.0084375,-0.0075
1.01,-0.0084375,-0.0075
1.011,-0.0084375,-0.0075
1.012,-0.008125,-0.0078125
1.013,-0.008125,-0.0078125
1.014,-0.008125,-0.0084375
1.015,-0.008125,-0.00875
1.016,-0.008125,-0.0090625
1.017,-0.0078125,-0.009375
1.018,-0.0075,-0.01
1.019,-0.0075,-0.0103125
1.02,-0.0071875,-0.0103125
1.021,-0.006875,-0.0103125
1.022,-0.0065625,-0.010625
1.023,-0.0059375,-0.0103125
1.024,-0.0059375,-0.0103125
1.025,-0.0053125,-0.0103125
1.026,-0.005,-0.01
1.027,-0.005,-0.0096875
1.028,-0.004375,-0.0096875
1.029,-0.004375,-0.0096875
1.03,-0.0040625,-0.0096875
1.031,-0.0040625,-0.0096875
1.032,-0.0040625,-0.0096875
1.033,-0.00375,-0.0096875
1.034,-0.00375,-0.01
1.035,-0.00375,-0.0103125
1.036,-0.0034375,-0.010625
1.037,-0.0034375,-0.010625
1.038,-0.0034375,-0.01125
1.039,-0.003125,-0.01125
1.04,-0.003125,-0.01125
1.041,-0.0028125,-0.01125
1.042,-0.0025,-0.01125
1.043,-0.0025,-0.01125
1.044,-0.0021875,-0.0109375
1.045,-0.001875,-0.010625
1.046,-0.001875,-0.0103125
1.047,-0.001875,-0.01
1.048,-0.0015625,-0.01
1.049,-0.0015625,-0.01
1.05,-0.001875,-0.0096875
1.051,-0.001875,-0.01
1.052,-0.001875,-0.01
1.053,-0.001875,-0.01
1.054,-0.001875,-0.010625
1.055,-0.0021875,-0.010625
1.056,-0.0021875,-0.0109375
1.057,-0.0021875,-0.0115625
1.058,-0.0021875,-0.0115625
1.059,-0.0021875,-0.0121875
1.06,-0.001875,-0.0121875
1.061,-0.001875,-0.0121875
1.062,-0.001875,-0.0121875
1.063,-0.0015625,-0.0121875
1.064,-0.0015625,-0.0121875
1.065,-0.00125,-0.0121875
1.066,-0.00125,-0.011875
1.067,-0.00125,-0.011875
1.068,-0.00125,-0.011875
1.069,-0.00125,-0.011875
1.07,-0.00125,-0.011875
1.071,-0.00125,-0.011875
1.072,-0.00125,-0.0121875
1.073,-0.0015625,-0.0125
1.074,-0.0015625,-0.0128125
1.075,-0.0015625,-0.013125
1.076,-0.0015625,-0.0134375
1.077,-0.0015625,-0.0140625
1.078,-0.0015625,-0.0140625
1.079,-0.0015625,-0.0146875
1.08,-0.0015625,-0.0146875
1.081,-0.0015625,-0.015
1.082,-0.00125,-0.015
1.083,-0.00125,-0.0146875
1.084,-0.0009375,-0.0146875
1.085,-0.0009375,-0.014375
1.086,-0.0009375,-0.014375
1.087,-0.0009375,-0.014375
1.088,-0.0009375,-0.0140625
1.089,-0.0009375,-0.0140625
1.09,-0.0009375,-0.0140625
1.091,-0.00125,-0.0140625
1.092,-0.00125,-0.0140625
1.093,-0.00125,-0.014375
1.094,-0.0015625,-0.0146875
1.095,-0.0015625,-0.015
1.096,-0.0015625,-0.0153125
1.097,-0.001875,-0.015625
1.098,-0.001875,-0.0159375
1.099,-0.001875,-0.01625
1.1,-0.001875,-0.01625
1.101,-0.001875,-0.0165625
1.102,-0.001875,-0.0165625
1.103,-0.0015625,-0.01625
1.104,-0.0015625,-0.01625
1.105,-0.0015625,-0.01625
1.106,-0.0015625,-0.0159375
1.107,-0.0015625,-0.0159375
1.108,-0.0015625,-0.015625
1.109,-0.0015625,-0.015625
1.11,-0.001875,-0.015625
1.111,-0.001875,-0.015625
1.112,-0.001875,-0.0159375
1.113,-0.0021875,-0.0159375
1.114,-0.0025,-0.0165625
1.115,-0.0028125,-0.0165625
1.116,-0.0028125,-0.016875
1.117,-0.003125,-0.0171875
1.118,-0.003125,-0.0171875
1.119,-0.003125,-0.0175
1.12,-0.0034375,-0.0175
1.121,-0.0034375,-0.0175
1.122,-0.0034375,-0.0175
1.123,-0.00375,-0.0171875
1.124,-0.00375,-0.0171875
1.125,-0.00375,-0.016875
1.126,-0.0040625,-0.01625
1.127,-0.0040625,-0.01625
1.128,-0.0040625,-0.0159375
1.129,-0.004375,-0.015625
1.13,-0.0046875,-0.0153125
1.131,-0.005,-0.0153125
1.132,-0.0053125,-0.0153125
1.133,-0.005625,-0.0153125
1.134,-0.0059375,-0.015625
1.135,-0.00625,-0.015625
1.136,-0.00625,-0.015625
1.137,-0.006875,-0.0159375
1.138,-0.006875,-0.0159375
1.139,-0.006875,-0.01625
1.14,-0.0071875,-0.01625
1.141,-0.0071875,-0.0159375
1.142,-0.0071875,-0.0159375
1.143,-0.0071875,-0.0159375
1.144,-0.0071875,-0.015625
1.145,-0.0071875,-0.0153125
1.146,-0.0071875,-0.0153125
1.147,-0.0071875,-0.015
1.148,-0.0071875,-0.015
1.149,-0.0071875,-0.015
1.15,-0.0071875,-0.0146875
1.151,-0.0071875,-0.015
1.152,-0.0075,-0.015
1.153,-0.0075,-0.015
1.154,-0.0075,-0.0153125
1.155,-0.0078125,-0.015625
1.156,-0.0078125,-0.015625
1.157,-0.0078125,-0.0159375
1.158,-0.0078125,-0.0159375
1.159,-0.0078125,-0.0159375
1.16,-0.0075,-0.0159375
1.161,-0.0075,-0.015625
1.162,-0.0075,-0.015625
1.163,-0.0071875,-0.015
1.164,-0.0071875,-0.0146875
1.165,-0.006875,-0.014375
1.166,-0.006875,-0.01375
1.167,-0.006875,-0.0134375
1.168,-0.0065625,-0.0128125
1.169,-0.0065625,-0.0125
1.17,-0.0065625,-0.011875
1.171,-0.0065625,-0.0115625
1.172,-0.0065625,-0.01125
1.173,-0.0065625,-0.01125
1.174,-0.0065625,-0.0109375
1.175,-0.0065625,-0.010625
1.176,-0.0065625,-0.0103125
1.177,-0.0065625,-0.0103125
1.178,-0.0065625,-0.01
1.179,-0.00625,-0.0096875
1.18,-0.00625,-0.0090625
1.181,-0.0059375,-0.00875
1.182,-0.005625,-0.0084375
1.183,-0.005625,-0.0075
1.184,-0.0053125,-0.006875
1.185,-0.0046875,-0.0065625
1.186,-0.0046875,-0.005625
1.187,-0.004375,-0.0046875
1.188,-0.0040625,-0.004375
1.189,-0.0040625,-0.00375
1.19,-0.00375,-0.0034375
1.191,-0.00375,-0.003125
1.192,-0.0034375,-0.0028125
1.193,-0.0034375,-0.0028125
1.194,-0.0034375,-0.0025
1.195,-0.003125,-0.0025
1.196,-0.003125,-0.0025
1.197,-0.0028125,-0.0025
1.198,-0.0028125,-0.0025
1.199,-0.0025,-0.0025
1.2,-0.0021875,-0.0021875
1.201,-0.001875,-0.0021875
1.202,-0.001875,-0.0021875
1.203,-0.0015625,-0.0015625
1.204,-0.00125,-0.0015625
1.205,-0.00125,-0.0009375
1.206,-0.0009375,-0.000625
1.207,-0.000625,-0.000625
1.208,-0.000625,-0.0003125
1.209,-0.0003125,0
1.21,-0.0003125,0
1.211,-0.0003125,0
1.212,-0.0003125,-0.0003125
1.213,-0.0003125,-0.0003125
1.214,0,-0.0003125
1.215,0,-0.000625
1.216,0,-0.0009375
1.217,0,-0.00125
1.218,0,-0.00125
1.219,0.0003125,-0.0015625
1.22,0.0003125,-0.0015625
1.221,0.000625,-0.0015625
1.222,0.000625,-0.0015625
1.223,0.0009375,-0.00125
1.224,0.00125,-0.00125
1.225,0.00125,-0.0009375
1.226,0.0015625,-0.000625
1.227,0.0015625,-0.000625
1.228,0.0015625,0
1.229,0.001875,0
1.23,0.001875,0
1.231,0.001875,0.0003125
1.232,0.001875,0.0003125
1.233,0.001875,0
1.234,0.001875,0
1.235,0.001875,0
1.236,0.001875,-0.0003125
1.237,0.001875,-0.0003125
1.238,0.001875,-0.0003125
1.239,0.0021875,-0.0003125
1.24,0.0021875,-0.0003125
1.241,0.0025,-0.0003125
1.242,0.0025,-0.0003125
1.243,0.0025,0
1.244,0.0028125,0.0003125
1.245,0.0028125,0.000625
1.246,0.003125,0.000625
1.247,0.003125,0.0009375
1.248,0.003125,0.00125
1.249,0.0034375,0.00125
1.25,0.0034375,0.00125
1.251,0.0034375,0.00125
1.252,0.0034375,0.0009375
1.253,0.0034375,0.0009375
1.254,0.0034375,0.0003125
1.255,0.0034375,0.0003125
1.256,0.0034375,-0.0003125
1.257,0.00375,-0.000625
1.258,0.00375,-0.0009375
1.259,0.0040625,-0.00125
1.26,0.004375,-0.0015625
1.261,0.004375,-0.0015625
1.262,0.0046875,-0.0015625
1.263,0.005,-0.0015625
1.264,0.005,-0.0015625
1.265,0.0053125,-0.0015625
1.266,0.005625,-0.0015625
1.267,0.0059375,-0.0015625
1.268,0.0059375,-0.0015625
1.269,0.0059375,-0.0015625
1.27,0.00625,-0.0015625
1.271,0.00625,-0.0015625
1.272,0.00625,-0.0015625
1.273,0.00625,-0.001875
1.274,0.00625,-0.001875
1.275,0.00625,-0.0021875
1.276,0.00625,-0.0021875
1.277,0.00625,-0.0025
1.278,0.00625,-0.0025
1.279,0.00625,-0.0025
1.28,0.0065625,-0.0025
1.281,0.0065625,-0.0021875
1.282,0.0065625,-0.001875
1.283,0.006875,-0.0015625
1.284,0.006875,-0.00125
1.285,0.006875,-0.000625
1.286,0.006875,-0.0003125
1.287,0.006875,0.0003125
1.288,0.006875,0.000625
1.289,0.006875,0.0009375
1.29,0.0065625,0.0015625
1.291,0.0065625,0.0015625
1.292,0.00625,0.001875
1.293,0.00625,0.001875
1.294,0.00625,0.001875
1.295,0.0059375,0.001875
1.296,0.0059375,0.001875
1.297,0.0059375,0.001875
1.298,0.0059375,0.001875
1.299,0.0059375,0.001875
1.3,0.0059375,0.001875
1.301,0.0059375,0.001875
1.302,0.0059375,0.001875
1.303,0.00625,0.0021875
1.304,0.00625,0.0021875
1.305,0.00625,0.0025
1.306,0.0065625,0.0025
1.307,0.0065625,0.0028125
1.308,0.0065625,0.0028125
1.309,0.0065625,0.0028125
1.31,0.0065625,0.0028125
1.311,0.0065625,0.0028125
1.312,0.0065625,0.0025
1.313,0.0065625,0.0021875
1.314,0.0065625,0.0021875
1.315,0.0065625,0.001875
1.316,0.0065625,0.0015625
1.317,0.0065625,0.00125
1.318,0.0065625,0.0009375
1.319,0.0065625,0.000625
1.32,0.0065625,0.000625
1.321,0.0065625,0.0003125
1.322,0.006875,0.0003125
1.323,0.006875,0.0003125
1.324,0.006875,0.0003125
1.325,0.0071875,0.0003125
1.326,0.0071875,0.0003125
1.327,0.0071875,0.000625
1.328,0.0071875,0.000625
1.329,0.006875,0.000625
1.33,0.006875,0.000625
1.331,0.006875,0.0003125
1.332,0.0065625,0.0003125
1.333,0.00625,0.0003125
1.334,0.0059375,0
1.335,0.0059375,-0.0003125
1.336,0.005625,-0.0003125
1.337,0.0053125,-0.0003125
1.338,0.0053125,-0.000625
1.339,0.005,-0.000625
1.34,0.005,-0.000625
1.341,0.0046875,-0.000625
1.342,0.0046875,-0.000625
1.343,0.0046875,-0.000625
1.344,0.004375,-0.000625
1.345,0.004375,-0.0003125
1.346,0.004375,-0.0003125
1.347,0.0040625,0
1.348,0.0040625,0
1.349,0.00375,0
1.35,0.00375,0
1.351,0.00375,0
1.352,0.0034375,-0.0003125
1.353,0.0034375,-0.000625
1.354,0.003125,-0.000625
1.355,0.003125,-0.0009375
1.356,0.003125,-0.00125
1.357,0.003125,-0.00125
1.358,0.003125,-0.001875
1.359,0.003125,-0.001875
1.36,0.003125,-0.001875
1.361,0.0034375,-0.0021875
1.362,0.00375,-0.0021875
1.363,0.00375,-0.001875
1.364,0.004375,-0.001875
1.365,0.004375,-0.001875
1.366,0.0046875,-0.0015625
1.367,0.005,-0.0015625
1.368,0.005,-0.0015625
1.369,0.0053125,-0.0015625
1.37,0.005625,-0.0015625
1.371,0.0059375,-0.0015625
1.372,0.0059375,-0.001875
1.373,0.0059375,-0.001875
1.374,0.00625,-0.0021875
1.375,0.0065625,-0.0025
1.376,0.0065625,-0.0025
1.377,0.006875,-0.0028125
1.378,0.0071875,-0.003125
1.379,0.0071875,-0.003125
1.38,0.0078125,-0.003125
1.381,0.0078125,-0.003125
1.382,0.0084375,-0.003125
1.383,0.0084375,-0.003125
1.384,0.0090625,-0.003125
1.385,0.009375,-0.003125
1.386,0.0096875,-0.003125
1.387,0.0096875,-0.003125
1.388,0.0103125,-0.003125
1.389,0.0103125,-0.003125
1.39,0.010625,-0.003125
1.391,0.010625,-0.0034375
1.392,0.010625,-0.00375
1.393,0.0109375,-0.0040625
1.394,0.0109375,-0.004375
1.395,0.01125,-0.005
1.396,0.01125,-0.0053125
1.397,0.01125,-0.005625
1.398,0.0115625,-0.0059375
1.399,0.0115625,-0.00625
1.4,0.011875,-0.0065625
1.401,0.0121875,-0.0065625
1.402,0.0121875,-0.006875
1.403,0.0125,-0.006875
1.404,0.0125,-0.0065625
1.405,0.0125,-0.0065625
1.406,0.0128125,-0.00625
1.407,0.0128125,-0.00625
1.408,0.0128125,-0.0059375
1.409,0.0128125,-0.0059375
1.41,0.0125,-0.005625
1.411,0.0125,-0.005625
1.412,0.0121875,-0.005625
1.413,0.011875,-0.0053125
1.414,0.011875,-0.0053125
1.415,0.01125,-0.0053125
1.416,0.01125,-0.005
1.417,0.0109375,-0.0046875
1.418,0.010625,-0.004375
1.419,0.0103125,-0.0040625
1.42,0.0103125,-0.00375
1.421,0.0096875,-0.003125
1.422,0.0096875,-0.0028125
1.423,0.009375,-0.001875
1.424,0.0090625,-0.0015625
1.425,0.0090625,-0.000625
1.426,0.0084375,-0.0003125
1.427,0.0084375,0.000625
1.428,0.0078125,0.0009375
1.429,0.0078125,0.001875
1.43,0.0071875,0.0021875
1.431,0.006875,0.0025
1.432,0.0065625,0.0028125
1.433,0.00625,0.003125
1.434,0.005625,0.0034375
1.435,0.005625,0.0034375
1.436,0.005,0.0034375
1.437,0.005,0.00375
1.438,0.0046875,0.00375
1.439,0.004375,0.00375
1.44,0.004375,0.0040625
1.441,0.004375,0.0040625
1.442,0.004375,0.004375
1.443,0.0040625,0.004375
1.444,0.0040625,0.0046875
1.445,0.0040625,0.005
1.446,0.0040625,0.005
1.447,0.0040625,0.0053125
1.448,0.0040625,0.0053125
1.449,0.0040625,0.0053125
1.45,0.0040625,0.005
1.451,0.0040625,0.005
1.452,0.0040625,0.005
1.453,0.0040625,0.004375
1.454,0.00375,0.0040625
1.455,0.00375,0.0040625
1.456,0.00375,0.0034375
1.457,0.00375,0.003125
1.458,0.00375,0.003125
1.459,0.00375,0.0025
1.46,0.00375,0.0025
1.461,0.00375,0.0025
1.462,0.00375,0.0021875
1.463,0.00375,0.0021875
1.464,0.00375,0.0021875
1.465,0.00375,0.0021875
1.466,0.0034375,0.0021875
1.467,0.0034375,0.0021875
1.468,0.0034375,0.0021875
1.469,0.003125,0.0021875
1.47,0.0028125,0.0021875
1.471,0.0025,0.001875
1.472,0.0021875,0.001875
1.473,0.001875,0.0015625
1.474,0.00125,0.00125
1.475,0.0009375,0.00125
1.476,0.000625,0.0009375
1.477,0.0003125,0.000625
1.478,-0.0003125,0.000625
1.479,-0.000625,0.0003125
1.48,-0.0009375,0.000625
1.481,-0.0015625,0.000625
1.482,-0.001875,0.000625
1.483,-0.0025,0.0009375
1.484,-0.0028125,0.0009375
1.485,-0.003125,0.00125
1.486,-0.00375,0.001875
1.487,-0.004375,0.0021875
1.488,-0.0046875,0.0021875
1.489,-0.005,0.0025
1.49,-0.0059375,0.0025
1.491,-0.0065625,0.0025
1.492,-0.006875,0.0025
1.493,-0.0071875,0.0025
1.494,-0.008125,0.0025
1.495,-0.0084375,0.0021875
1.496,-0.00875,0.0021875
1.497,-0.009375,0.0021875
1.498,-0.009375,0.001875
1.499,-0.0096875,0.001875
1.5,-0.0103125,0.001875
1.501,-0.0103125,0.001875
1.502,-0.0103125,0.0021875
1.503,-0.010625,0.0021875
1.504,-0.010625,0.0021875
1.505,-0.010625,0.0025
1.506,-0.010625,0.0025
1.507,-0.010625,0.0025
1.508,-0.010625,0.0028125
1.509,-0.010625,0.0028125
1.51,-0.0103125,0.0025
1.511,-0.0103125,0.0025
1.512,-0.0103125,0.0025
1.513,-0.01,0.0021875
1.514,-0.01,0.001875
1.515,-0.01,0.0015625
1.516,-0.0096875,0.0015625
1.517,-0.009375,0.00125
1.518,-0.0090625,0.00125
1.519,-0.00875,0.00125
1.52,-0.0084375,0.00125
1.521,-0.008125,0.00125
1.522,-0.0075,0.00125
1.523,-0.0071875,0.0015625
1.524,-0.006875,0.0015625
1.525,-0.0065625,0.001875
1.526,-0.0059375,0.0025
1.527,-0.0059375,0.0025
1.528,-0.0053125,0.0028125
1.529,-0.005,0.003125
1.53,-0.005,0.003125
1.531,-0.0046875,0.0034375
1.532,-0.004375,0.0034375
1.533,-0.004375,0.0034375
1.534,-0.0040625,0.0034375
1.535,-0.00375,0.0034375
1.536,-0.00375,0.00375
1.537,-0.0034375,0.00375
1.538,-0.003125,0.00375
1.539,-0.003125,0.00375
1.54,-0.0028125,0.00375
1.541,-0.0021875,0.0040625
1.542,-0.001875,0.0040625
1.543,-0.001875,0.004375
1.544,-0.0015625,0.004375
1.545,-0.00125,0.004375
1.546,-0.0009375,0.0046875
1.547,-0.000625,0.0046875
1.548,-0.000625,0.0046875
1.549,-0.0003125,0.0046875
1.55,-0.0003125,0.0046875
1.551,-0.0003125,0.0046875
1.552,0,0.004375
1.553,0,0.0040625
1.554,0,0.00375
1.555,0.0003125,0.0034375
1.556,0.0003125,0.003125
1.557,0.0003125,0.0028125
1.558,0.000625,0.0021875
1.559,0.000625,0.0021875
1.56,0.000625,0.001875
1.561,0.0009375,0.0015625
1.562,0.0009375,0.0015625
1.563,0.0009375,0.0015625
1.564,0.00125,0.0015625
1.565,0.00125,0.0015625
1.566,0.00125,0.0015625
1.567,0.00125,0.0015625
1.568,0.00125,0.0015625
1.569,0.00125,0.00125
1.57,0.0009375,0.00125
1.571,0.0009375,0.00125
1.572,0.000625,0.0009375
1.573,0.000625,0.000625
1.574,0.0003125,0.000625
1.575,0,0.0003125
1.576,0,0
1.577,-0.0003125,-0.0003125
1.578,-0.0003125,-0.0003125
1.579,-0.000625,-0.0003125
1.58,-0.000625,-0.0003125
1.581,-0.000625,-0.0003125
1.582,-0.0009375,-0.0003125
1.583,-0.0009375,-0.0003125
1.584,-0.00125,0
1.585,-0.00125,0
1.586,-0.00125,0
1.587,-0.0015625,0.0003125
1.588,-0.0015625,0.0003125
1.589,-0.001875,0.0003125
1.59,-0.001875,0.0003125
1.591,-0.0021875,0.0003125
1.592,-0.0025,0.0003125
1.593,-0.0025,0
1.594,-0.0028125,-0.0003125
1.595,-0.0028125,-0.000625
1.596,-0.0028125,-0.000625
1.597,-0.0028125,-0.00125
1.598,-0.003125,-0.00125
1.599,-0.003125,-0.001875
1.6,-0.0028125,-0.001875
1.601,-0.0028125,-0.001875
1.602,-0.0028125,-0.0021875
1.603,-0.0028125,-0.0021875
1.604,-0.0025,-0.0021875
1.605,-0.0025,-0.0021875
1.606,-0.0025,-0.0021875
1.607,-0.0021875,-0.0021875
1.608,-0.0021875,-0.0021875
1.609,-0.0021875,-0.0025
1.61,-0.0021875,-0.0025
1.611,-0.0021875,-0.0025
1.612,-0.0021875,-0.0028125
1.613,-0.0021875,-0.0028125
1.614,-0.0025,-0.003125
1.615,-0.0025,-0.003125
1.616,-0.0025,-0.003125
1.617,-0.0025,-0.0034375
1.618,-0.0021875,-0.0034375
1.619,-0.0021875,-0.00375
1.62,-0.0021875,-0.00375
1.621,-0.0021875,-0.0034375
1.622,-0.0021875,-0.0034375
1.623,-0.0021875,-0.0034375
1.624,-0.001875,-0.003125
1.625,-0.001875,-0.003125
1.626,-0.001875,-0.0028125
1.627,-0.001875,-0.0025
1.628,-0.001875,-0.0025
1.629,-0.001875,-0.0025
1.63,-0.001875,-0.0025
1.631,-0.001875,-0.0025
1.632,-0.001875,-0.0025
1.633,-0.001875,-0.0025
1.634,-0.001875,-0.0028125
1.635,-0.001875,-0.003125
1.636,-0.0015625,-0.003125
1.637,-0.0015625,-0.00375
1.638,-0.0015625,-0.00375
1.639,-0.0015625,-0.0040625
1.64,-0.00125,-0.004375
1.641,-0.00125,-0.004375
1.642,-0.0009375,-0.0046875
1.643,-0.000625,-0.0046875
1.644,-0.000625,-0.0046875
1.645,-0.0003125,-0.005
1.646,-0.0003125,-0.005
1.647,0,-0.005
1.648,0.0003125,-0.0053125
1.649,0.0003125,-0.0053125
1.65,0.0003125,-0.005625
1.651,0.000625,-0.0059375
1.652,0.000625,-0.0059375
1.653,0.000625,-0.0065625
1.654,0.000625,-0.0065625
1.655,0.000625,-0.0071875
1.656,0.0009375,-0.0075
1.657,0.0009375,-0.0075
1.658,0.0009375,-0.0078125
1.659,0.0009375,-0.0078125
1.66,0.0009375,-0.0078125
1.661,0.0009375,-0.0078125
1.662,0.0009375,-0.0078125
1.663,0.0009375,-0.0078125
1.664,0.0009375,-0.0075
1.665,0.000625,-0.0075
1.666,0.000625,-0.0071875
1.667,0.000625,-0.006875
1.668,0.000625,-0.006875
1.669,0.000625,-0.0065625
1.67,0.000625,-0.0065625
1.671,0.0003125,-0.0065625
1.672,0.0003125,-0.0065625
1.673,0,-0.0065625
1.674,0,-0.0065625
1.675,0,-0.0065625
1.676,0,-0.006875
1.677,0,-0.006875
1.678,0,-0.006875
1.679,0,-0.006875
1.68,0,-0.006875
1.681,0,-0.006875
1.682,0.0003125,-0.006875
1.683,0.0003125,-0.0065625
1.684,0.000625,-0.0065625
1.685,0.000625,-0.0065625
1.686,0.0009375,-0.00625
1.687,0.0009375,-0.00625
1.688,0.00125,-0.00625
1.689,0.00125,-0.00625
1.69,0.0015625,-0.00625
1.691,0.0015625,-0.0065625
1.692,0.001875,-0.0065625
1.693,0.001875,-0.006875
1.694,0.0021875,-0.0071875
1.695,0.0021875,-0.0071875
1.696,0.0025,-0.0075
1.697,0.0025,-0.0078125
1.698,0.0028125,-0.008125
1.699,0.003125,-0.008125
1.7,0.003125,-0.008125
1.701,0.0034375,-0.008125
1.702,0.0034375,-0.0078125
1.703,0.0034375,-0.0078125
1.704,0.00375,-0.0075
1.705,0.00375,-0.0071875
1.706,0.00375,-0.006875
1.707,0.00375,-0.0065625
1.708,0.00375,-0.00625
1.709,0.0034375,-0.00625
1.71,0.0034375,-0.005625
1.711,0.003125,-0.005625
1.712,0.003125,-0.0053125
1.713,0.0028125,-0.0053125
1.714,0.0025,-0.0053125
1.715,0.0025,-0.005
1.716,0.001875,-0.005
1.717,0.001875,-0.005
1.718,0.0015625,-0.005
1.719,0.00125,-0.0046875
1.72,0.00125,-0.0046875
1.721,0.0009375,-0.004375
1.722,0.0009375,-0.0040625
1.723,0.0009375,-0.0040625
1.724,0.000625,-0.00375
1.725,0.000625,-0.0034375
1.726,0.0003125,-0.003125
1.727,0.0003125,-0.0028125
1.728,0.0003125,-0.0025
1.729,0,-0.0025
1.73,0,-0.0025
1.731,-0.0003125,-0.0021875
1.732,-0.0003125,-0.0025
1.733,-0.000625,-0.0025
1.734,-0.000625,-0.0025
1.735,-0.000625,-0.0028125
1.736,-0.0009375,-0.0028125
1.737,-0.0009375,-0.0028125
1.738,-0.000625,-0.003125
1.739,-0.000625,-0.003125
1.74,-0.000625,-0.003125
1.741,-0.0003125,-0.0034375
1.742,-0.0003125,-0.003125
1.743,-0.0003125,-0.003125
1.744,0,-0.003125
1.745,0,-0.003125
1.746,0.0003125,-0.003125
1.747,0.000625,-0.0028125
1.748,0.000625,-0.0028125
1.749,0.000625,-0.0028125
1.75,0.0009375,-0.0028125
1.751,0.0009375,-0.0028125
1.752,0.0009375,-0.0028125
1.753,0.0009375,-0.0028125
1.754,0.0009375,-0.0028125
1.755,0.00125,-0.0028125
1.756,0.00125,-0.0028125
1.757,0.00125,-0.003125
1.758,0.00125,-0.003125
1.759,0.00125,-0.003125
1.76,0.00125,-0.003125
1.761,0.00125,-0.0028125
1.762,0.00125,-0.0028125
1.763,0.00125,-0.0028125
1.764,0.00125,-0.0025
1.765,0.00125,-0.0025
1.766,0.00125,-0.0021875
1.767,0.00125,-0.001875
1.768,0.00125,-0.001875
1.769,0.0009375,-0.001875
1.77,0.0009375,-0.0015625
1.771,0.000625,-0.0015625
1.772,0.0003125,-0.0015625
1.773,0.0003125,-0.001875
1.774,0,-0.001875
1.775,-0.0003125,-0.001875
1.776,-0.000625,-0.0021875
1.777,-0.000625,-0.0021875
1.778,-0.0009375,-0.0021875
1.779,-0.0009375,-0.0021875
1.78,-0.00125,-0.0021875
1.781,-0.0015625,-0.001875
1.782,-0.0015625,-0.001875
1.783,-0.001875,-0.001875
1.784,-0.001875,-0.00125
1.785,-0.001875,-0.00125
1.786,-0.0021875,-0.0009375
1.787,-0.0021875,-0.000625
1.788,-0.0025,-0.000625
1.789,-0.0025,-0.0003125
1.79,-0.0028125,-0.0003125
1.791,-0.003125,0
1.792,-0.003125,0
1.793,-0.0034375,-0.0003125
1.794,-0.0034375,-0.0003125
1.795,-0.0034375,-0.0003125
1.796,-0.00375,-0.0003125
1.797,-0.00375,-0.0003125
1.798,-0.00375,-0.000625
1.799,-0.00375,-0.000625
1.8,-0.00375,-0.000625
1.801,-0.00375,-0.000625
1.802,-0.00375,-0.0003125
1.803,-0.0034375,-0.0003125
1.804,-0.0034375,-0.0003125
1.805,-0.0034375,-0.0003125
1.806,-0.0034375,-0.0003125
1.807,-0.0034375,-0.0003125
1.808,-0.003125,-0.0003125
1.809,-0.003125,-0.0003125
1.81,-0.003125,-0.0003125
1.811,-0.003125,-0.0003125
1.812,-0.003125,-0.000625
1.813,-0.003125,-0.0009375
1.814,-0.003125,-0.0009375
1.815,-0.003125,-0.00125
1.816,-0.003125,-0.001875
1.817,-0.003125,-0.001875
1.818,-0.003125,-0.0025
1.819,-0.0028125,-0.0025
1.82,-0.0028125,-0.0025
1.821,-0.0028125,-0.0028125
1.822,-0.0025,-0.0028125
1.823,-0.0025,-0.0028125
1.824,-0.0021875,-0.0028125
1.825,-0.0021875,-0.0028125
1.826,-0.0021875,-0.0028125
1.827,-0.001875,-0.0028125
1.828,-0.001875,-0.0028125
1.829,-0.0015625,-0.003125
1.83,-0.0015625,-0.003125
1.831,-0.0015625,-0.003125
1.832,-0.00125,-0.003125
1.833,-0.00125,-0.0034375
1.834,-0.00125,-0.0034375
1.835,-0.0009375,-0.0034375
1.836,-0.0009375,-0.00375
1.837,-0.000625,-0.00375
1.838,-0.000625,-0.00375
1.839,-0.0003125,-0.00375
1.84,0,-0.00375
1.841,0,-0.00375
1.842,0.0003125,-0.0034375
1.843,0.000625,-0.0034375
1.844,0.000625,-0.003125
1.845,0.0009375,-0.0028125
1.846,0.00125,-0.0028125
1.847,0.0015625,-0.0025
1.848,0.001875,-0.0021875
1.849,0.001875,-0.0021875
1.85,0.001875,-0.0021875
1.851,0.0021875,-0.0021875
1.852,0.0021875,-0.0021875
1.853,0.0021875,-0.0021875
1.854,0.0021875,-0.0021875
1.855,0.0021875,-0.0025
1.856,0.0021875,-0.0025
1.857,0.0021875,-0.0028125
1.858,0.0025,-0.0028125
1.859,0.0025,-0.0028125
1.86,0.0021875,-0.0028125
1.861,0.0021875,-0.0028125
1.862,0.0021875,-0.0028125
1.863,0.0021875,-0.0028125
1.864,0.0021875,-0.0028125
1.865,0.0021875,-0.0025
1.866,0.0021875,-0.0025
1.867,0.001875,-0.0025
1.868,0.001875,-0.0025
1.869,0.0015625,-0.0028125
1.87,0.00125,-0.0028125
1.871,0.00125,-0.0028125
1.872,0.00125,-0.003125
1.873,0.0009375,-0.0034375
1.874,0.000625,-0.00375
1.875,0.0003125,-0.0040625
1.876,0.0003125,-0.004375
1.877,0.0003125,-0.0046875
1.878,0,-0.005
1.879,0,-0.0053125
1.88,0,-0.0053125
1.881,0,-0.005625
1.882,0,-0.005625
1.883,0,-0.005625
1.884,0,-0.005625
1.885,0,-0.005625
1.886,0,-0.005625
1.887,0,-0.005625
1.888,0,-0.005625
1.889,0,-0.0053125
1.89,0,-0.0053125
1.891,0,-0.0053125
1.892,0,-0.0053125
1.893,0,-0.005625
1.894,-0.0003125,-0.005625
1.895,-0.0003125,-0.005625
1.896,-0.0003125,-0.005625
1.897,-0.0003125,-0.005625
1.898,-0.0003125,-0.005625
1.899,-0.0003125,-0.0053125
1.9,-0.0003125,-0.0053125
1.901,-0.0003125,-0.0053125
1.902,-0.0003125,-0.005
1.903,-0.0003125,-0.005
1.904,-0.0003125,-0.0046875
1.905,-0.0003125,-0.004375
1.906,-0.0003125,-0.004375
1.907,-0.000625,-0.0040625
1.908,-0.000625,-0.0040625
1.909,-0.000625,-0.0040625
1.91,-0.0009375,-0.0040625
1.911,-0.0009375,-0.0040625
1.912,-0.00125,-0.0040625
1.913,-0.0015625,-0.004375
1.914,-0.001875,-0.004375
1.915,-0.001875,-0.004375
1.916,-0.0021875,-0.0046875
1.917,-0.0025,-0.0046875
1.918,-0.0025,-0.005
1.919,-0.0028125,-0.005
1.92,-0.0028125,-0.005
1.921,-0.003125,-0.005
1.922,-0.003125,-0.0053125
1.923,-0.003125,-0.0053125
1.924,-0.003125,-0.0053125
1.925,-0.0034375,-0.0053125
1.926,-0.0034375,-0.0053125
1.927,-0.0034375,-0.0053125
1.928,-0.0034375,-0.0053125
1.929,-0.0034375,-0.0053125
1.93,-0.00375,-0.0053125
1.931,-0.00375,-0.005625
1.932,-0.00375,-0.0059375
1.933,-0.00375,-0.00625
1.934,-0.0040625,-0.00625
1.935,-0.0040625,-0.0065625
1.936,-0.0040625,-0.006875
1.937,-0.0040625,-0.006875
1.938,-0.0040625,-0.0071875
1.939,-0.0040625,-0.0071875
1.94,-0.00375,-0.0071875
1.941,-0.00375,-0.0071875
1.942,-0.00375,-0.006875
1.943,-0.00375,-0.006875
1.944,-0.00375,-0.006875
1.945,-0.00375,-0.0065625
1.946,-0.0034375,-0.0065625
1.947,-0.0034375,-0.00625
1.948,-0.00375,-0.0059375
1.949,-0.00375,-0.0059375
1.95,-0.00375,-0.0059375
1.951,-0.00375,-0.005625
1.952,-0.0040625,-0.005625
1.953,-0.0040625,-0.005625
1.954,-0.0040625,-0.0053125
1.955,-0.004375,-0.0053125
1.956,-0.004375,-0.0053125
1.957,-0.0046875,-0.0053125
1.958,-0.0046875,-0.0053125
1.959,-0.0046875,-0.0053125
1.96,-0.005,-0.005
1.961,-0.005,-0.0046875
1.962,-0.0053125,-0.0046875
1.963,-0.0053125,-0.004375
1.964,-0.0053125,-0.00375
1.965,-0.005625,-0.00375
1.966,-0.005625,-0.0034375
1.967,-0.0059375,-0.003125
1.968,-0.00625,-0.0028125
1.969,-0.0065625,-0.0025
1.97,-0.0065625,-0.0025
1.971,-0.006875,-0.0025
1.972,-0.0071875,-0.0025
1.973,-0.0071875,-0.0025
1.974,-0.0078125,-0.0025
1.975,-0.0078125,-0.0025
1.976,-0.008125,-0.0025
1.977,-0.008125,-0.0025
1.978,-0.008125,-0.0028125
1.979,-0.0084375,-0.0028125
1.98,-0.0084375,-0.0028125
1.981,-0.0084375,-0.0028125
1.982,-0.0084375,-0.0028125
1.983,-0.0084375,-0.0028125
1.984,-0.0084375,-0.0028125
1.985,-0.0084375,-0.0028125
1.986,-0.0084375,-0.0028125
1.987,-0.0084375,-0.0028125
1.988,-0.008125,-0.0028125
1.989,-0.008125,-0.0028125
1.99,-0.008125,-0.003125
1.991,-0.008125,-0.003125
1.992,-0.008125,-0.003125
1.993,-0.0078125,-0.0034375
1.994,-0.0078125,-0.0034375
1.995,-0.0078125,-0.00375
1.996,-0.0075,-0.0040625
1.997,-0.0075,-0.0040625
1.998,-0.0071875,-0.004375
1.999,-0.006875,-0.004375
2,-0.006875,-0.004375
2.001,-0.00625,-0.0046875
2.002,-0.00625,-0.004375
2.003,-0.0059375,-0.004375
2.004,-0.005625,-0.004375
2.005,-0.0053125,-0.004375
2.006,-0.005,-0.004375
2.007,-0.0046875,-0.0040625
2.008,-0.004375,-0.0040625
2.009,-0.0040625,-0.0040625
2.01,-0.00375,-0.0040625
2.011,-0.00375,-0.004375
2.012,-0.0034375,-0.004375
2.013,-0.0028125,-0.004375
2.014,-0.0028125,-0.004375
2.015,-0.0021875,-0.0046875
2.016,-0.0021875,-0.0046875
2.017,-0.0015625,-0.0046875
2.018,-0.00125,-0.0046875
2.019,-0.0009375,-0.0046875
2.02,-0.000625,-0.0046875
2.021,0,-0.0046875
2.022,0.0003125,-0.0046875
2.023,0.000625,-0.0046875
2.024,0.00125,-0.004375
2.025,0.0015625,-0.004375
2.026,0.001875,-0.004375
2.027,0.0025,-0.0040625
2.028,0.0028125,-0.0040625
2.029,0.003125,-0.0040625
2.03,0.0034375,-0.0040625
2.031,0.00375,-0.0040625
2.032,0.0040625,-0.0040625
2.033,0.004375,-0.004375
2.034,0.0046875,-0.004375
2.035,0.005,-0.004375
2.036,0.0053125,-0.004375
2.037,0.005625,-0.0046875
2.038,0.005625,-0.004375
2.039,0.0059375,-0.004375
2.04,0.0065625,-0.004375
2.041,0.006875,-0.004375
2.042,0.006875,-0.0040625
2.043,0.0071875,-0.00375
2.044,0.0075,-0.0034375
2.045,0.0075,-0.0034375
2.046,0.0078125,-0.0028125
2.047,0.0078125,-0.0025
2.048,0.0078125,-0.0025
2.049,0.008125,-0.0021875
2.05,0.008125,-0.0021875
2.051,0.008125,-0.001875
2.052,0.008125,-0.0015625
2.053,0.008125,-0.0015625
2.054,0.008125,-0.00125
2.055,0.0078125,-0.00125
2.056,0.0078125,-0.00125
2.057,0.0078125,-0.0009375
2.058,0.0078125,-0.0009375
2.059,0.0078125,-0.000625
2.06,0.0078125,-0.0003125
2.061,0.0078125,0
2.062,0.0075,0.0003125
2.063,0.0075,0.000625
2.064,0.0075,0.0009375
2.065,0.0075,0.00125
2.066,0.0071875,0.0015625
2.067,0.0071875,0.001875
2.068,0.0071875,0.0021875
2.069,0.006875,0.0025
2.07,0.006875,0.0028125
2.071,0.0065625,0.0028125
2.072,0.00625,0.0028125
2.073,0.00625,0.003125
2.074,0.00625,0.003125
2.075,0.0059375,0.003125
2.076,0.005625,0.003125
2.077,0.0053125,0.003125
2.078,0.0053125,0.0034375
2.079,0.0053125,0.0034375
2.08,0.005,0.0034375
2.081,0.005,0.00375
2.082,0.005,0.00375
2.083,0.005,0.0040625
2.084,0.005,0.0046875
2.085,0.0046875,0.0046875
2.086,0.005,0.005
2.087,0.005,0.0053125
2.088,0.005,0.005625
2.089,0.005,0.0059375
2.09,0.005,0.00625
2.091,0.005,0.00625
2.092,0.005,0.006875
2.093,0.0053125,0.0071875
2.094,0.0053125,0.0071875
2.095,0.005625,0.0075
2.096,0.0059375,0.0078125
2.097,0.0059375,0.008125
2.098,0.0065625,0.00875
2.099,0.006875,0.0090625
2.1,0.006875,0.009375
2.101,0.0075,0.0103125
2.102,0.0078125,0.0109375
2.103,0.008125,0.01125
2.104,0.00875,0.0121875
2.105,0.0090625,0.0125
2.106,0.0096875,0.0134375
2.107,0.01,0.014375
2.108,0.0103125,0.0146875
2.109,0.0109375,0.0153125
2.11,0.01125,0.01625
2.111,0.0115625,0.0165625
2.112,0.011875,0.0171875
2.113,0.0125,0.0175
2.114,0.0125,0.018125
2.115,0.013125,0.0184375
2.116,0.013125,0.01875
2.117,0.0134375,0.019375
2.118,0.0140625,0.0196875
2.119,0.014375,0.02
2.12,0.014375,0.020625
2.121,0.0146875,0.0209375
2.122,0.015,0.02125
2.123,0.015,0.0215625
2.124,0.015,0.0221875
2.125,0.0153125,0.0221875
2.126,0.0153125,0.0225
2.127,0.0153125,0.0228125
2.128,0.0153125,0.0228125
2.129,0.015,0.023125
2.13,0.015,0.023125
2.131,0.015,0.0228125
2.132,0.0146875,0.0228125
2.133,0.014375,0.0225
2.134,0.014375,0.0221875
2.135,0.014375,0.021875
2.136,0.0140625,0.0215625
2.137,0.01375,0.02125
2.138,0.0134375,0.020625
2.139,0.0134375,0.0203125
2.14,0.013125,0.02
2.141,0.013125,0.0196875
2.142,0.0128125,0.0190625
2.143,0.0125,0.0190625
2.144,0.0125,0.0184375
2.145,0.0121875,0.018125
2.146,0.011875,0.0178125
2.147,0.011875,0.0175
2.148,0.0115625,0.016875
2.149,0.01125,0.0165625
2.15,0.01125,0.01625
2.151,0.0109375,0.015625
2.152,0.010625,0.015
2.153,0.010625,0.014375
2.154,0.0103125,0.0140625
2.155,0.01,0.0134375
2.156,0.01,0.013125
2.157,0.0096875,0.0125
2.158,0.0096875,0.0121875
2.159,0.0096875,0.011875
2.16,0.0096875,0.0115625
2.161,0.0096875,0.01125
2.162,0.0096875,0.0109375
2.163,0.0096875,0.0109375
2.164,0.0096875,0.0109375
2.165,0.0096875,0.010625
2.166,0.0096875,0.010625
2.167,0.0096875,0.010625
2.168,0.0096875,0.010625
2.169,0.0096875,0.0103125
2.17,0.0096875,0.0103125
2.171,0.0096875,0.0103125
2.172,0.0096875,0.0103125
2.173,0.0096875,0.01
2.174,0.01,0.01
2.175,0.01,0.01
2.176,0.01,0.0096875
2.177,0.0103125,0.0096875
2.178,0.0103125,0.0096875
2.179,0.0103125,0.0096875
2.18,0.010625,0.0096875
2.181,0.010625,0.0096875
2.182,0.0109375,0.01
2.183,0.01125,0.01
2.184,0.0115625,0.01
2.185,0.0115625,0.01
2.186,0.011875,0.01
2.187,0.011875,0.0103125
2.188,0.0121875,0.01
2.189,0.0125,0.01
2.19,0.0125,0.01
2.191,0.0128125,0.01
2.192,0.0128125,0.0096875
2.193,0.0128125,0.0096875
2.194,0.013125,0.0096875
2.195,0.013125,0.009375
2.196,0.0134375,0.0090625
2.197,0.0134375,0.00875
2.198,0.0134375,0.00875
2.199,0.01375,0.00875
2.2,0.01375,0.0084375
2.201,0.01375,0.0084375
2.202,0.0140625,0.0084375
2.203,0.0140625,0.008125
2.204,0.0140625,0.008125
2.205,0.014375,0.008125
2.206,0.014375,0.008125
2.207,0.014375,0.008125
2.208,0.014375,0.0078125
2.209,0.014375,0.0078125
2.21,0.014375,0.0078125
2.211,0.0140625,0.0075
2.212,0.0140625,0.0071875
2.213,0.0140625,0.006875
2.214,0.0140625,0.0065625
2.215,0.0140625,0.00625
2.216,0.01375,0.0059375
2.217,0.01375,0.005625
2.218,0.01375,0.0053125
2.219,0.01375,0.005
2.22,0.01375,0.0046875
2.221,0.01375,0.0046875
2.222,0.0140625,0.004375
2.223,0.0140625,0.0040625
2.224,0.0140625,0.00375
2.225,0.0140625,0.00375
2.226,0.0140625,0.0034375
2.227,0.0140625,0.0034375
2.228,0.0140625,0.003125
2.229,0.014375,0.0025
2.23,0.014375,0.0025
2.231,0.014375,0.0021875
2.232,0.014375,0.0015625
2.233,0.014375,0.0015625
2.234,0.014375,0.0009375
2.235,0.0146875,0.000625
2.236,0.0146875,0.0003125
2.237,0.0146875,0.0003125
2.238,0.015,0
2.239,0.015,0
2.24,0.0153125,0
2.241,0.0153125,0
2.242,0.0153125,0
2.243,0.015625,0
2.244,0.0159375,0
2.245,0.0159375,0.0003125
2.246,0.0159375,0.0003125
2.247,0.01625,0.0003125
2.248,0.01625,0.000625
2.249,0.01625,0.000625
2.25,0.0165625,0.000625
2.251,0.0165625,0.000625
2.252,0.0165625,0.0009375
2.253,0.0165625,0.0009375
2.254,0.0165625,0.000625
2.255,0.016875,0.000625
2.256,0.016875,0.0009375
2.257,0.016875,0.0009375
2.258,0.016875,0.0009375
2.259,0.016875,0.0009375
2.26,0.016875,0.0009375
2.261,0.016875,0.0009375
2.262,0.016875,0.0009375
2.263,0.016875,0.0009375
2.264,0.016875,0.0009375
2.265,0.016875,0.0009375
2.266,0.016875,0.0009375
2.267,0.016875,0.0009375
2.268,0.016875,0.0009375
2.269,0.0165625,0.000625
2.27,0.0165625,0.000625
2.271,0.0165625,0.0003125
2.272,0.0165625,-0.0003125
2.273,0.0165625,-0.0003125
2.274,0.01625,-0.0009375
2.275,0.01625,-0.00125
2.276,0.0159375,-0.0015625
2.277,0.0159375,-0.001875
2.278,0.0159375,-0.0021875
2.279,0.0159375,-0.0028125
2.28,0.015625,-0.0028125
2.281,0.015625,-0.003125
2.282,0.015625,-0.0034375
2.283,0.015625,-0.0034375
2.284,0.015625,-0.0034375
2.285,0.015625,-0.00375
2.286,0.0153125,-0.00375
2.287,0.0153125,-0.0040625
2.288,0.0153125,-0.0040625
2.289,0.015,-0.0040625
2.29,0.015,-0.004375
2.291,0.015,-0.0046875
2.292,0.015,-0.005
2.293,0.015,-0.005
2.294,0.0146875,-0.0053125
2.295,0.0146875,-0.005625
2.296,0.0146875,-0.005625
2.297,0.0146875,-0.005625
2.298,0.0146875,-0.0059375
2.299,0.014375,-0.0059375
2.3,0.014375,-0.0059375
2.301,0.014375,-0.0059375
2.302,0.014375,-0.0059375
2.303,0.014375,-0.0059375
2.304,0.014375,-0.0059375
2.305,0.014375,-0.005625
2.306,0.014375,-0.005625
2.307,0.014375,-0.005625
2.308,0.014375,-0.0053125
2.309,0.014375,-0.0053125
2.31,0.0140625,-0.0053125
2.311,0.0140625,-0.0053125
2.312,0.0140625,-0.005625
2.313,0.01375,-0.005625
2.314,0.01375,-0.005625
2.315,0.0134375,-0.005625
2.316,0.013125,-0.005625
2.317,0.013125,-0.0059375
2.318,0.0128125,-0.0059375
2.319,0.0125,-0.0059375
2.32,0.0121875,-0.0059375
2.321,0.0121875,-0.0059375
2.322,0.011875,-0.0059375
2.323,0.011875,-0.0059375
2.324,0.0115625,-0.005625
2.325,0.01125,-0.005625
2.326,0.0109375,-0.0059375
2.327,0.0109375,-0.0059375
2.328,0.010625,-0.0059375
2.329,0.0103125,-0.0059375
2.33,0.0103125,-0.00625
2.331,0.0096875,-0.00625
2.332,0.0096875,-0.00625
2.333,0.009375,-0.006875
2.334,0.0090625,-0.006875
2.335,0.0090625,-0.0071875
2.336,0.0084375,-0.0075
2.337,0.0084375,-0.0075
2.338,0.008125,-0.0078125
2.339,0.008125,-0.008125
2.34,0.0078125,-0.0084375
2.341,0.0078125,-0.0084375
2.342,0.0078125,-0.0084375
2.343,0.0075,-0.00875
2.344,0.0075,-0.00875
2.345,0.0075,-0.00875
2.346,0.0075,-0.0090625
2.347,0.0075,-0.0090625
2.348,0.0071875,-0.0090625
2.349,0.0071875,-0.009375
2.35,0.0071875,-0.009375
2.351,0.0071875,-0.0096875
2.352,0.0071875,-0.01
2.353,0.0071875,-0.0103125
2.354,0.0071875,-0.0103125
2.355,0.0071875,-0.010625
2.356,0.0071875,-0.0109375
2.357,0.0071875,-0.0109375
2.358,0.0071875,-0.0109375
2.359,0.0071875,-0.01125
2.36,0.0071875,-0.01125
2.361,0.0071875,-0.01125
2.362,0.0071875,-0.01125
2.363,0.006875,-0.01125
2.364,0.006875,-0.01125
2.365,0.006875,-0.0109375
2.366,0.006875,-0.0109375
2.367,0.0065625,-0.0109375
2.368,0.0065625,-0.010625
2.369,0.0065625,-0.010625
2.37,0.00625,-0.010625
2.371,0.00625,-0.0109375
2.372,0.005625,-0.0109375
2.373,0.005625,-0.0109375
2.374,0.0053125,-0.0109375
2.375,0.005,-0.0109375
2.376,0.005,-0.01125
2.377,0.004375,-0.01125
2.378,0.004375,-0.01125
2.379,0.00375,-0.01125
2.38,0.00375,-0.01125
2.381,0.003125,-0.01125
2.382,0.003125,-0.01125
2.383,0.0025,-0.01125
2.384,0.0025,-0.01125
2.385,0.001875,-0.01125
2.386,0.0015625,-0.01125
2.387,0.00125,-0.0115625
2.388,0.0009375,-0.0115625
2.389,0.0003125,-0.0115625
2.39,0,-0.011875
2.391,-0.000625,-0.011875
2.392,-0.0009375,-0.011875
2.393,-0.00125,-0.0125
2.394,-0.001875,-0.0125
2.395,-0.0021875,-0.0128125
2.396,-0.0025,-0.013125
2.397,-0.003125,-0.0134375
2.398,-0.0034375,-0.0134375
2.399,-0.00375,-0.01375
2.4,-0.0040625,-0.0140625
2.401,-0.0046875,-0.014375
2.402,-0.0046875,-0.014375
2.403,-0.0053125,-0.014375
2.404,-0.005625,-0.0146875
2.405,-0.005625,-0.0146875
2.406,-0.00625,-0.0146875
2.407,-0.0065625,-0.0146875
2.408,-0.006875,-0.015
2.409,-0.0071875,-0.015
2.41,-0.0075,-0.015
2.411,-0.0078125,-0.015
2.412,-0.008125,-0.0153125
2.413,-0.0084375,-0.0153125
2.414,-0.00875,-0.0153125
2.415,-0.0090625,-0.015625
2.416,-0.009375,-0.015625
2.417,-0.0096875,-0.015625
2.418,-0.0096875,-0.0153125
2.419,-0.01,-0.0153125
2.42,-0.0103125,-0.0153125
2.421,-0.0103125,-0.015
2.422,-0.010625,-0.0146875
2.423,-0.010625,-0.014375
2.424,-0.010625,-0.0140625
2.425,-0.0109375,-0.0134375
2.426,-0.0109375,-0.013125
2.427,-0.0109375,-0.0128125
2.428,-0.0109375,-0.0121875
2.429,-0.01125,-0.011875
2.43,-0.01125,-0.0115625
2.431,-0.01125,-0.0109375
2.432,-0.01125,-0.010625
2.433,-0.01125,-0.0103125
2.434,-0.0115625,-0.01
2.435,-0.0115625,-0.0096875
2.436,-0.0115625,-0.009375
2.437,-0.0115625,-0.009375
2.438,-0.01125,-0.0090625
2.439,-0.01125,-0.0084375
2.44,-0.01125,-0.0084375
2.441,-0.01125,-0.0078125
2.442,-0.01125,-0.0078125
2.443,-0.0109375,-0.0071875
2.444,-0.0109375,-0.006875
2.445,-0.0109375,-0.0065625
2.446,-0.0109375,-0.00625
2.447,-0.010625,-0.0059375
2.448,-0.010625,-0.005625
2.449,-0.010625,-0.0053125
2.45,-0.010625,-0.0053125
2.451,-0.010625,-0.0053125
2.452,-0.010625,-0.005
2.453,-0.010625,-0.005
2.454,-0.010625,-0.005
2.455,-0.010625,-0.005
2.456,-0.010625,-0.005
2.457,-0.010625,-0.005
2.458,-0.010625,-0.005
2.459,-0.010625,-0.005
2.46,-0.010625,-0.005
2.461,-0.010625,-0.0046875
2.462,-0.010625,-0.0046875
2.463,-0.010625,-0.0046875
2.464,-0.010625,-0.0046875
2.465,-0.010625,-0.0046875
2.466,-0.010625,-0.004375
2.467,-0.010625,-0.004375
2.468,-0.010625,-0.004375
2.469,-0.010625,-0.0040625
2.47,-0.010625,-0.0040625
2.471,-0.010625,-0.0040625
2.472,-0.010625,-0.0040625
2.473,-0.010625,-0.0040625
2.474,-0.010625,-0.0040625
2.475,-0.010625,-0.0040625
2.476,-0.010625,-0.0040625
2.477,-0.010625,-0.0040625
2.478,-0.010625,-0.0040625
2.479,-0.010625,-0.0040625
2.48,-0.010625,-0.0040625
2.481,-0.010625,-0.0040625
2.482,-0.0103125,-0.0040625
2.483,-0.0103125,-0.00375
2.484,-0.0103125,-0.00375
2.485,-0.01,-0.00375
2.486,-0.01,-0.00375
2.487,-0.01,-0.0034375
2.488,-0.01,-0.0034375
2.489,-0.0096875,-0.0034375
2.49,-0.0096875,-0.0034375
2.491,-0.0096875,-0.0034375
2.492,-0.0096875,-0.0034375
2.493,-0.0096875,-0.00375
2.494,-0.009375,-0.00375
2.495,-0.009375,-0.00375
2.496,-0.009375,-0.00375
2.497,-0.0090625,-0.0040625
2.498,-0.0090625,-0.0040625
2.499,-0.00875,-0.0040625
2.5,-0.00875,-0.004375
2.501,-0.0084375,-0.004375
2.502,-0.008125,-0.004375
2.503,-0.008125,-0.004375
2.504,-0.0075,-0.004375
2.505,-0.0075,-0.004375
2.506,-0.0071875,-0.0046875
2.507,-0.006875,-0.0046875
2.508,-0.0065625,-0.0046875
2.509,-0.0065625,-0.005
2.51,-0.00625,-0.005
2.511,-0.0059375,-0.0053125
2.512,-0.0059375,-0.005625
2.513,-0.005625,-0.0059375
2.514,-0.005625,-0.0059375
2.515,-0.0053125,-0.00625
2.516,-0.005,-0.0065625
2.517,-0.005,-0.006875
2.518,-0.0046875,-0.0071875
2.519,-0.004375,-0.0075
2.52,-0.004375,-0.0075
2.521,-0.00375,-0.008125
2.522,-0.00375,-0.008125
2.523,-0.0034375,-0.0084375
2.524,-0.003125,-0.00875
2.525,-0.003125,-0.00875
2.526,-0.0028125,-0.0090625
2.527,-0.0025,-0.009375
2.528,-0.0021875,-0.009375
2.529,-0.0021875,-0.0096875
2.53,-0.001875,-0.01
2.531,-0.001875,-0.01
2.532,-0.001875,-0.0103125
2.533,-0.0015625,-0.010625
2.534,-0.0015625,-0.0109375
2.535,-0.0015625,-0.01125
2.536,-0.00125,-0.01125
2.537,-0.00125,-0.01125
2.538,-0.00125,-0.0115625
2.539,-0.00125,-0.0115625
2.54,-0.0009375,-0.0115625
2.541,-0.0009375,-0.0115625
2.542,-0.0009375,-0.0115625
2.543,-0.000625,-0.0115625
2.544,-0.000625,-0.0115625
2.545,-0.000625,-0.0115625
2.546,-0.000625,-0.01125
2.547,-0.000625,-0.01125
2.548,-0.0003125,-0.01125
2.549,-0.0003125,-0.0109375
2.55,-0.0003125,-0.0109375
2.551,-0.0003125,-0.0109375
2.552,-0.000625,-0.0109375
2.553,-0.000625,-0.0109375
2.554,-0.000625,-0.010625
2.555,-0.000625,-0.010625
2.556,-0.000625,-0.010625
2.557,-0.000625,-0.010625
2.558,-0.000625,-0.010625
2.559,-0.000625,-0.010625
2.56,-0.0009375,-0.010625
2.561,-0.0009375,-0.010625
2.562,-0.0009375,-0.0103125
2.563,-0.0009375,-0.0103125
2.564,-0.0009375,-0.0103125
2.565,-0.00125,-0.01
2.566,-0.00125,-0.01
2.567,-0.0015625,-0.01
2.568,-0.0015625,-0.01
2.569,-0.0015625,-0.01
2.57,-0.001875,-0.01
2.571,-0.001875,-0.01
2.572,-0.0021875,-0.01
2.573,-0.0021875,-0.01
2.574,-0.0025,-0.0103125
2.575,-0.0028125,-0.0103125
2.576,-0.0028125,-0.010625
2.577,-0.003125,-0.0109375
2.578,-0.003125,-0.0109375
2.579,-0.003125,-0.01125
2.58,-0.0034375,-0.01125
2.581,-0.0034375,-0.01125
2.582,-0.0034375,-0.0115625
2.583,-0.00375,-0.0115625
2.584,-0.00375,-0.0115625
2.585,-0.0040625,-0.0115625
2.586,-0.0040625,-0.0115625
2.587,-0.0040625,-0.0115625
2.588,-0.004375,-0.0115625
2.589,-0.004375,-0.0115625
2.59,-0.004375,-0.0115625
2.591,-0.0046875,-0.011875
2.592,-0.0046875,-0.011875
2.593,-0.005,-0.011875
2.594,-0.005,-0.011875
2.595,-0.005,-0.011875
2.596,-0.0053125,-0.0121875
2.597,-0.0053125,-0.0121875
2.598,-0.0053125,-0.0121875
2.599,-0.005625,-0.0121875
2.6,-0.005625,-0.0121875
2.601,-0.005625,-0.011875
2.602,-0.005625,-0.011875
2.603,-0.005625,-0.011875
2.604,-0.0059375,-0.0115625
2.605,-0.0059375,-0.0115625
2.606,-0.0059375,-0.01125
2.607,-0.00625,-0.01125
2.608,-0.00625,-0.01125
2.609,-0.00625,-0.0109375
2.61,-0.0065625,-0.0109375
2.611,-0.0065625,-0.0109375
2.612,-0.006875,-0.0109375
2.613,-0.006875,-0.0109375
2.614,-0.0071875,-0.0109375
2.615,-0.0071875,-0.0109375
2.616,-0.0075,-0.0109375
2.617,-0.0075,-0.0109375
2.618,-0.0075,-0.0109375
2.619,-0.0078125,-0.0109375
2.62,-0.0078125,-0.0109375
2.621,-0.0078125,-0.0109375
2.622,-0.008125,-0.0109375
2.623,-0.008125,-0.010625
2.624,-0.008125,-0.010625
2.625,-0.008125,-0.010625
2.626,-0.008125,-0.010625
2.627,-0.008125,-0.010625
2.628,-0.008125,-0.010625
2.629,-0.0084375,-0.0109375
2.63,-0.0084375,-0.0109375
2.631,-0.0084375,-0.0109375
2.632,-0.0084375,-0.0109375
2.633,-0.0084375,-0.01125
2.634,-0.0084375,-0.01125
2.635,-0.0084375,-0.01125
2.636,-0.0084375,-0.0115625
2.637,-0.0084375,-0.0115625
2.638,-0.0084375,-0.0115625
2.639,-0.008125,-0.011875
2.64,-0.008125,-0.011875
2.641,-0.008125,-0.0121875
2.642,-0.0078125,-0.0121875
2.643,-0.0078125,-0.0121875
2.644,-0.0078125,-0.0121875
2.645,-0.0075,-0.0121875
2.646,-0.0075,-0.0121875
2.647,-0.0071875,-0.0121875
2.648,-0.0071875,-0.0121875
2.649,-0.0071875,-0.0121875
2.65,-0.006875,-0.0121875
2.651,-0.006875,-0.0125
2.652,-0.0065625,-0.0125
2.653,-0.0065625,-0.0125
2.654,-0.0065625,-0.0125
2.655,-0.00625,-0.0128125
2.656,-0.00625,-0.0128125
2.657,-0.0059375,-0.0128125
2.658,-0.0059375,-0.0128125
2.659,-0.005625,-0.0128125
2.66,-0.005625,-0.0128125
2.661,-0.0053125,-0.0128125
2.662,-0.0053125,-0.0128125
2.663,-0.0053125,-0.0128125
2.664,-0.005,-0.0128125
2.665,-0.005,-0.0125
2.666,-0.0046875,-0.0125
2.667,-0.0046875,-0.0125
2.668,-0.0046875,-0.0121875
2.669,-0.004375,-0.0121875
2.67,-0.004375,-0.0121875
2.671,-0.004375,-0.011875
2.672,-0.004375,-0.011875
2.673,-0.004375,-0.011875
2.674,-0.004375,-0.011875
2.675,-0.004375,-0.011875
2.676,-0.004375,-0.0115625
2.677,-0.004375,-0.0115625
2.678,-0.0040625,-0.0115625
2.679,-0.0040625,-0.0115625
2.68,-0.0040625,-0.0115625
2.681,-0.0040625,-0.0115625
2.682,-0.0040625,-0.0115625
2.683,-0.0040625,-0.01125
2.684,-0.004375,-0.01125
2.685,-0.004375,-0.01125
2.686,-0.004375,-0.0109375
2.687,-0.004375,-0.0109375
2.688,-0.004375,-0.0109375
2.689,-0.004375,-0.0109375
2.69,-0.004375,-0.010625
2.691,-0.004375,-0.010625
2.692,-0.004375,-0.010625
2.693,-0.0046875,-0.010625
2.694,-0.0046875,-0.0109375
2.695,-0.0046875,-0.0109375
2.696,-0.0046875,-0.0109375
2.697,-0.0046875,-0.0109375
2.698,-0.0046875,-0.010625
2.699,-0.0046875,-0.010625
2.7,-0.0046875,-0.010625
2.701,-0.0046875,-0.010625
2.702,-0.0046875,-0.010625
2.703,-0.0046875,-0.010625
2.704,-0.0046875,-0.010625
2.705,-0.0046875,-0.010625
2.706,-0.0046875,-0.0103125
2.707,-0.0046875,-0.0103125
2.708,-0.0046875,-0.0103125
2.709,-0.0046875,-0.0103125
2.71,-0.005,-0.0103125
2.711,-0.005,-0.0103125
2.712,-0.005,-0.0103125
2.713,-0.005,-0.0103125
2.714,-0.005,-0.010625
2.715,-0.005,-0.010625
2.716,-0.005,-0.010625
2.717,-0.005,-0.0109375
2.718,-0.005,-0.0109375
2.719,-0.005,-0.0109375
2.72,-0.005,-0.01125
2.721,-0.005,-0.01125
2.722,-0.005,-0.01125
2.723,-0.005,-0.01125
2.724,-0.0046875,-0.0115625
2.725,-0.005,-0.0115625
2.726,-0.005,-0.0115625
2.727,-0.005,-0.011875
2.728,-0.005,-0.011875
2.729,-0.005,-0.0121875
2.73,-0.005,-0.0125
2.731,-0.005,-0.0125
2.732,-0.005,-0.013125
2.733,-0.005,-0.013125
2.734,-0.005,-0.01375
2.735,-0.005,-0.01375
2.736,-0.005,-0.0140625
2.737,-0.005,-0.0146875
2.738,-0.005,-0.0146875
2.739,-0.005,-0.0153125
2.74,-0.005,-0.015625
2.741,-0.0046875,-0.015625
2.742,-0.0046875,-0.0159375
2.743,-0.0046875,-0.01625
2.744,-0.0046875,-0.01625
2.745,-0.0046875,-0.0165625
2.746,-0.004375,-0.0165625
2.747,-0.004375,-0.016875
2.748,-0.004375,-0.016875
2.749,-0.004375,-0.016875
2.75,-0.004375,-0.0171875
2.751,-0.004375,-0.0171875
2.752,-0.004375,-0.0171875
2.753,-0.004375,-0.0175
2.754,-0.004375,-0.0175
2.755,-0.0040625,-0.0178125
2.756,-0.0040625,-0.0178125
2.757,-0.0040625,-0.0178125
2.758,-0.0040625,-0.0178125
2.759,-0.0040625,-0.0178125
2.76,-0.0040625,-0.0175
2.761,-0.0040625,-0.0175
2.762,-0.00375,-0.0175
2.763,-0.00375,-0.0171875
2.764,-0.00375,-0.016875
2.765,-0.00375,-0.016875
2.766,-0.00375,-0.0165625
2.767,-0.00375,-0.01625
2.768,-0.00375,-0.01625
2.769,-0.00375,-0.015625
2.77,-0.00375,-0.015625
2.771,-0.00375,-0.0153125
2.772,-0.00375,-0.015
2.773,-0.00375,-0.015
2.774,-0.00375,-0.0146875
2.775,-0.00375,-0.014375
2.776,-0.00375,-0.014375
2.777,-0.0034375,-0.0140625
2.778,-0.0034375,-0.01375
2.779,-0.0034375,-0.0134375
2.78,-0.0034375,-0.013125
2.781,-0.0034375,-0.0128125
2.782,-0.0034375,-0.0125
2.783,-0.0034375,-0.0121875
2.784,-0.0034375,-0.011875
2.785,-0.0034375,-0.0115625
2.786,-0.0034375,-0.01125
2.787,-0.0034375,-0.0109375
2.788,-0.0034375,-0.010625
2.789,-0.0034375,-0.010625
2.79,-0.0034375,-0.0103125
2.791,-0.0034375,-0.01
2.792,-0.0034375,-0.01
2.793,-0.0034375,-0.0096875
2.794,-0.0034375,-0.0096875
2.795,-0.0034375,-0.0096875
2.796,-0.0034375,-0.009375
2.797,-0.0034375,-0.009375
2.798,-0.0034375,-0.009375
2.799,-0.0034375,-0.0090625
2.8,-0.0034375,-0.0090625
2.801,-0.0034375,-0.00875
2.802,-0.003125,-0.00875
2.803,-0.003125,-0.00875
2.804,-0.003125,-0.0084375
2.805,-0.003125,-0.0084375
2.806,-0.003125,-0.0084375
2.807,-0.0028125,-0.008125
2.808,-0.0028125,-0.008125
2.809,-0.0028125,-0.008125
2.81,-0.0025,-0.008125
2.811,-0.0025,-0.008125
2.812,-0.0025,-0.008125
2.813,-0.0021875,-0.008125
2.814,-0.0021875,-0.008125
2.815,-0.0021875,-0.0084375
2.816,-0.001875,-0.0084375
2.817,-0.001875,-0.0084375
2.818,-0.0015625,-0.0084375
2.819,-0.0015625,-0.0084375
2.82,-0.00125,-0.0084375
2.821,-0.00125,-0.0084375
2.822,-0.0009375,-0.0084375
2.823,-0.0009375,-0.0084375
2.824,-0.000625,-0.0084375
2.825,-0.000625,-0.0084375
2.826,-0.000625,-0.008125
2.827,-0.0003125,-0.008125
2.828,-0.0003125,-0.008125
2.829,0,-0.008125
2.83,0,-0.008125
2.831,0.0003125,-0.008125
2.832,0.0003125,-0.0078125
2.833,0.000625,-0.0078125
2.834,0.000625,-0.0078125
2.835,0.000625,-0.0078125
2.836,0.0009375,-0.0078125
2.837,0.0009375,-0.0078125
2.838,0.00125,-0.0075
2.839,0.00125,-0.0075
2.84,0.0015625,-0.0075
2.841,0.0015625,-0.0071875
2.842,0.001875,-0.006875
2.843,0.001875,-0.006875
2.844,0.0021875,-0.00625
2.845,0.0021875,-0.00625
2.846,0.0025,-0.0059375
2.847,0.0025,-0.005625
2.848,0.0025,-0.005625
2.849,0.0028125,-0.0053125
2.85,0.0028125,-0.005
2.851,0.0028125,-0.005
2.852,0.003125,-0.0046875
2.853,0.003125,-0.004375
2.854,0.003125,-0.004375
2.855,0.0034375,-0.0040625
2.856,0.0034375,-0.00375
2.857,0.00375,-0.00375
2.858,0.00375,-0.00375
2.859,0.00375,-0.0034375
2.86,0.0040625,-0.003125
2.861,0.0040625,-0.003125
2.862,0.004375,-0.0025
2.863,0.004375,-0.0025
2.864,0.0046875,-0.0021875
2.865,0.005,-0.001875
2.866,0.005,-0.001875
2.867,0.005,-0.0015625
2.868,0.0053125,-0.00125
2.869,0.0053125,-0.00125
2.87,0.005625,-0.00125
2.871,0.005625,-0.0009375
2.872,0.005625,-0.0009375
2.873,0.0059375,-0.0009375
2.874,0.0059375,-0.0009375
2.875,0.0059375,-0.00125
2.876,0.00625,-0.00125
2.877,0.00625,-0.00125
2.878,0.0065625,-0.00125
2.879,0.006875,-0.0015625
2.88,0.006875,-0.001875
2.881,0.0071875,-0.001875
2.882,0.0075,-0.0021875
2.883,0.0075,-0.0025
2.884,0.0078125,-0.0025
2.885,0.008125,-0.0028125
2.886,0.008125,-0.0034375
2.887,0.0084375,-0.00375
2.888,0.00875,-0.0040625
2.889,0.00875,-0.0046875
2.89,0.00875,-0.005
2.891,0.0090625,-0.005625
2.892,0.009375,-0.0059375
2.893,0.009375,-0.006875
2.894,0.0096875,-0.0071875
2.895,0.0096875,-0.008125
2.896,0.0096875,-0.0084375
2.897,0.01,-0.0090625
2.898,0.01,-0.009375
2.899,0.0103125,-0.0103125
2.9,0.0103125,-0.010625
2.901,0.0103125,-0.0109375
2.902,0.010625,-0.0115625
2.903,0.010625,-0.011875
2.904,0.010625,-0.0125
2.905,0.010625,-0.0128125
2.906,0.010625,-0.013125
2.907,0.010625,-0.0134375
2.908,0.010625,-0.0140625
2.909,0.0103125,-0.0140625
2.91,0.0103125,-0.014375
2.911,0.01,-0.015
2.912,0.0096875,-0.015
2.913,0.0096875,-0.0153125
2.914,0.009375,-0.015625
2.915,0.0090625,-0.015625
2.916,0.0090625,-0.0159375
2.917,0.00875,-0.0159375
2.918,0.008125,-0.01625
2.919,0.0078125,-0.01625
2.92,0.0075,-0.01625
2.921,0.0071875,-0.01625
2.922,0.006875,-0.0159375
2.923,0.0065625,-0.0159375
2.924,0.0059375,-0.0159375
2.925,0.005625,-0.0159375
2.926,0.0053125,-0.0159375
2.927,0.0046875,-0.015625
2.928,0.004375,-0.015625
2.929,0.00375,-0.015625
2.93,0.0034375,-0.015625
2.931,0.0028125,-0.015625
2.932,0.0025,-0.015625
2.933,0.001875,-0.0159375
2.934,0.0015625,-0.0159375
2.935,0.0009375,-0.0159375
2.936,0.000625,-0.0159375
2.937,0.0003125,-0.0159375
2.938,-0.0003125,-0.0159375
2.939,-0.000625,-0.0159375
2.94,-0.0009375,-0.0159375
2.941,-0.00125,-0.0159375
2.942,-0.0015625,-0.0159375
2.943,-0.001875,-0.015625
2.944,-0.0021875,-0.015625
2.945,-0.0025,-0.015625
2.946,-0.0025,-0.015625
2.947,-0.003125,-0.015625
2.948,-0.003125,-0.0153125
2.949,-0.0034375,-0.0153125
2.95,-0.00375,-0.0153125
2.951,-0.00375,-0.0153125
2.952,-0.00375,-0.0153125
2.953,-0.0040625,-0.0153125
2.954,-0.0040625,-0.0153125
2.955,-0.004375,-0.0153125
2.956,-0.004375,-0.0153125
2.957,-0.004375,-0.0153125
2.958,-0.004375,-0.015
2.959,-0.0040625,-0.015
2.96,-0.0040625,-0.015
2.961,-0.0040625,-0.015
2.962,-0.0040625,-0.0146875
2.963,-0.00375,-0.014375
2.964,-0.00375,-0.014375
2.965,-0.00375,-0.0140625
2.966,-0.0034375,-0.01375
2.967,-0.0034375,-0.01375
2.968,-0.003125,-0.01375
2.969,-0.003125,-0.0134375
2.97,-0.0028125,-0.0134375
2.971,-0.0025,-0.013125
2.972,-0.0025,-0.013125
2.973,-0.0021875,-0.013125
2.974,-0.001875,-0.013125
2.975,-0.001875,-0.013125
2.976,-0.0015625,-0.0128125
2.977,-0.00125,-0.0128125
2.978,-0.0009375,-0.0128125
2.979,-0.000625,-0.0125
2.98,-0.000625,-0.0121875
2.981,0,-0.011875
2.982,0,-0.011875
2.983,0.0003125,-0.01125
2.984,0.000625,-0.01125
2.985,0.000625,-0.0109375
2.986,0.000625,-0.0103125
2.987,0.0009375,-0.0103125
2.988,0.0009375,-0.01
2.989,0.00125,-0.009375
2.99,0.00125,-0.009375
2.991,0.00125,-0.0090625
2.992,0.00125,-0.00875
2.993,0.00125,-0.0084375
2.994,0.00125,-0.0084375
2.995,0.00125,-0.0084375
2.996,0.00125,-0.008125
2.997,0.00125,-0.0078125
2.998,0.00125,-0.0078125
2.999,0.00125,-0.0075
3,0.00125,-0.0071875
3.001,0.00125,-0.0071875
3.002,0.00125,-0.006875
3.003,0.00125,-0.006875
3.004,0.00125,-0.006875
3.005,0.00125,-0.0065625
3.006,0.00125,-0.0065625
3.007,0.00125,-0.0065625
3.008,0.00125,-0.00625
3.009,0.00125,-0.0065625
3.01,0.0009375,-0.0065625
3.011,0.0009375,-0.0065625
3.012,0.0009375,-0.0065625
3.013,0.0009375,-0.006875
3.014,0.0009375,-0.006875
3.015,0.000625,-0.0071875
3.016,0.000625,-0.0075
3.017,0.000625,-0.0075
3.018,0.000625,-0.0078125
3.019,0.0009375,-0.008125
3.02,0.0009375,-0.008125
3.021,0.0009375,-0.0084375
3.022,0.0009375,-0.0084375
3.023,0.0009375,-0.00875
3.024,0.0009375,-0.00875
3.025,0.0009375,-0.00875
3.026,0.000625,-0.0090625
3.027,0.000625,-0.0090625
3.028,0.000625,-0.009375
3.029,0.000625,-0.009375
3.03,0.000625,-0.009375
3.031,0.000625,-0.0096875
3.032,0.000625,-0.0096875
3.033,0.000625,-0.0096875
3.034,0.000625,-0.01
3.035,0.0003125,-0.01
3.036,0.0003125,-0.01
3.037,0.0003125,-0.01
3.038,0.0003125,-0.01
3.039,0.000625,-0.01
3.04,0.000625,-0.01
3.041,0.000625,-0.01
3.042,0.000625,-0.0096875
3.043,0.000625,-0.0096875
3.044,0.000625,-0.0096875
3.045,0.000625,-0.009375
3.046,0.0009375,-0.009375
3.047,0.0009375,-0.009375
3.048,0.0009375,-0.0090625
3.049,0.0009375,-0.0090625
3.05,0.0009375,-0.0090625
3.051,0.0009375,-0.0090625
3.052,0.00125,-0.00875
3.053,0.00125,-0.00875
3.054,0.00125,-0.00875
3.055,0.0015625,-0.00875
3.056,0.0015625,-0.00875
3.057,0.001875,-0.00875
3.058,0.001875,-0.00875
3.059,0.001875,-0.00875
3.06,0.0021875,-0.00875
3.061,0.0021875,-0.0084375
3.062,0.0025,-0.0084375
3.063,0.0025,-0.0084375
3.064,0.0028125,-0.008125
3.065,0.0028125,-0.008125
3.066,0.003125,-0.008125
3.067,0.003125,-0.0078125
3.068,0.003125,-0.0078125
3.069,0.0034375,-0.0078125
3.07,0.0034375,-0.0075
3.071,0.0034375,-0.0075
3.072,0.0034375,-0.0075
3.073,0.00375,-0.0075
3.074,0.00375,-0.0075
3.075,0.00375,-0.0075
3.076,0.00375,-0.0075
3.077,0.00375,-0.0075
3.078,0.00375,-0.0075
3.079,0.0040625,-0.0075
3.08,0.0040625,-0.0071875
3.081,0.0040625,-0.0071875
3.082,0.0040625,-0.0071875
3.083,0.0040625,-0.006875
3.084,0.004375,-0.0065625
3.085,0.004375,-0.0065625
3.086,0.004375,-0.00625
3.087,0.004375,-0.00625
3.088,0.004375,-0.00625
3.089,0.004375,-0.0059375
3.09,0.0040625,-0.0059375
3.091,0.0040625,-0.0059375
3.092,0.0040625,-0.005625
3.093,0.0040625,-0.005625
3.094,0.0040625,-0.005625
3.095,0.0040625,-0.005625
3.096,0.0040625,-0.0053125
3.097,0.0040625,-0.0053125
3.098,0.0040625,-0.0053125
3.099,0.0040625,-0.005
3.1,0.0040625,-0.005
3.101,0.0040625,-0.005
3.102,0.00375,-0.0046875
3.103,0.00375,-0.0046875
3.104,0.00375,-0.004375
3.105,0.00375,-0.004375
3.106,0.00375,-0.004375
3.107,0.0034375,-0.0040625
3.108,0.0034375,-0.0040625
3.109,0.0034375,-0.00375
3.11,0.0034375,-0.00375
3.111,0.003125,-0.00375
3.112,0.003125,-0.00375
3.113,0.003125,-0.00375
3.114,0.0028125,-0.00375
3.115,0.0028125,-0.00375
3.116,0.0028125,-0.00375
3.117,0.0025,-0.0034375
3.118,0.0025,-0.0034375
3.119,0.0025,-0.0034375
3.12,0.0025,-0.0034375
3.121,0.0025,-0.0034375
3.122,0.0025,-0.0034375
3.123,0.0025,-0.0034375
3.124,0.0025,-0.0034375
3.125,0.0025,-0.003125
3.126,0.0025,-0.003125
3.127,0.0021875,-0.003125
3.128,0.0021875,-0.003125
3.129,0.0021875,-0.003125
3.13,0.0021875,-0.003125
3.131,0.0025,-0.003125
3.132,0.0025,-0.003125
3.133,0.0025,-0.003125
3.134,0.0025,-0.003125
3.135,0.0025,-0.003125
3.136,0.0025,-0.0028125
3.137,0.0025,-0.0028125
3.138,0.0025,-0.0028125
3.139,0.0025,-0.0028125
3.14,0.0025,-0.0025
3.141,0.0028125,-0.0025
3.142,0.0028125,-0.0025
3.143,0.0028125,-0.0021875
3.144,0.0028125,-0.001875
3.145,0.0028125,-0.001875
3.146,0.003125,-0.0015625
3.147,0.003125,-0.0015625
3.148,0.003125,-0.00125
3.149,0.003125,-0.0009375
3.15,0.003125,-0.0009375
3.151,0.003125,-0.000625
3.152,0.003125,-0.000625
3.153,0.003125,-0.000625
3.154,0.003125,-0.0003125
3.155,0.003125,-0.0003125
3.156,0.003125,-0.0003125
3.157,0.003125,0
3.158,0.003125,0
3.159,0.0034375,0
3.16,0.0034375,0.0003125
3.161,0.0034375,0.0003125
3.162,0.0034375,0.0003125
3.163,0.0034375,0.000625
3.164,0.0034375,0.000625
3.165,0.0034375,0.000625
3.166,0.0034375,0.000625
3.167,0.0034375,0.000625
3.168,0.0034375,0.000625
3.169,0.0034375,0.000625
3.17,0.0034375,0.000625
3.171,0.0034375,0.000625
3.172,0.0034375,0.000625
3.173,0.0034375,0.000625
3.174,0.003125,0.000625
3.175,0.003125,0.000625
3.176,0.003125,0.000625
3.177,0.003125,0.000625
3.178,0.003125,0.0003125
3.179,0.0028125,0.0003125
3.18,0.0028125,0.0003125
3.181,0.0028125,0.0003125
3.182,0.0028125,0.0003125
3.183,0.0025,0.0003125
3.184,0.0025,0.0003125
3.185,0.0025,0.0003125
3.186,0.0025,0.000625
3.187,0.0025,0.000625
3.188,0.0021875,0.000625
3.189,0.0021875,0.000625
3.19,0.001875,0.000625
3.191,0.001875,0.000625
3.192,0.001875,0.000625
3.193,0.001875,0.000625
3.194,0.0015625,0.000625
3.195,0.0015625,0.000625
3.196,0.0015625,0.000625
3.197,0.00125,0.000625
3.198,0.00125,0.000625
3.199,0.00125,0.000625
3.2,0.00125,0.0009375
3.201,0.00125,0.0009375
3.202,0.00125,0.0009375
3.203,0.00125,0.0009375
3.204,0.00125,0.0009375
3.205,0.00125,0.00125
3.206,0.00125,0.00125
3.207,0.00125,0.00125
3.208,0.0015625,0.00125
3.209,0.0015625,0.0009375
3.21,0.0015625,0.0009375
3.211,0.0015625,0.0009375
3.212,0.0015625,0.000625
3.213,0.0015625,0.000625
3.214,0.001875,0.0003125
3.215,0.001875,0
3.216,0.001875,0
3.217,0.0021875,-0.0003125
3.218,0.0021875,-0.000625
3.219,0.0021875,-0.000625
3.22,0.0025,-0.00125
3.221,0.0025,-0.00125
3.222,0.0025,-0.0015625
3.223,0.0025,-0.001875
3.224,0.0028125,-0.0021875
3.225,0.0028125,-0.0025
3.226,0.0028125,-0.0028125
3.227,0.003125,-0.003125
3.228,0.003125,-0.0034375
3.229,0.003125,-0.00375
3.23,0.003125,-0.0040625
3.231,0.003125,-0.004375
3.232,0.0034375,-0.0046875
3.233,0.0034375,-0.0053125
3.234,0.0034375,-0.005625
3.235,0.0034375,-0.0059375
3.236,0.0034375,-0.00625
3.237,0.0034375,-0.006875
3.238,0.0034375,-0.0071875
3.239,0.0034375,-0.0071875
3.24,0.0034375,-0.0075
3.241,0.00375,-0.0078125
3.242,0.00375,-0.0078125
3.243,0.00375,-0.008125
3.244,0.00375,-0.008125
3.245,0.00375,-0.008125
3.246,0.00375,-0.008125
3.247,0.00375,-0.008125
3.248,0.00375,-0.008125
3.249,0.00375,-0.008125
3.25,0.0034375,-0.008125
3.251,0.0034375,-0.008125
3.252,0.0034375,-0.0078125
3.253,0.0034375,-0.0078125
3.254,0.0034375,-0.0075
3.255,0.0034375,-0.0075
3.256,0.0034375,-0.0075
3.257,0.0034375,-0.0071875
3.258,0.0034375,-0.006875
3.259,0.0034375,-0.006875
3.26,0.0034375,-0.00625
3.261,0.0034375,-0.00625
3.262,0.0034375,-0.0059375
3.263,0.0034375,-0.005625
3.264,0.0034375,-0.005
3.265,0.0034375,-0.005
3.266,0.003125,-0.004375
3.267,0.003125,-0.004375
3.268,0.003125,-0.0040625
3.269,0.003125,-0.0034375
3.27,0.003125,-0.0034375
3.271,0.0028125,-0.003125
3.272,0.0028125,-0.0028125
3.273,0.0028125,-0.0028125
3.274,0.0025,-0.0025
3.275,0.0025,-0.0025
3.276,0.0025,-0.0021875
3.277,0.0021875,-0.0021875
3.278,0.0021875,-0.001875
3.279,0.0021875,-0.001875
3.28,0.0021875,-0.001875
3.281,0.0021875,-0.0015625
3.282,0.001875,-0.0015625
3.283,0.001875,-0.00125
3.284,0.001875,-0.00125
3.285,0.001875,-0.00125
3.286,0.001875,-0.0009375
3.287,0.0015625,-0.0009375
3.288,0.0015625,-0.000625
3.289,0.0015625,-0.000625
3.29,0.0015625,-0.000625
3.291,0.0015625,-0.000625
3.292,0.00125,-0.000625
3.293,0.00125,-0.000625
3.294,0.00125,-0.000625
3.295,0.00125,-0.000625
3.296,0.00125,-0.000625
3.297,0.0009375,-0.000625
3.298,0.0009375,-0.000625
3.299,0.0009375,-0.0003125
3.3,0.0009375,-0.0003125
3.301,0.0009375,-0.0003125
3.302,0.0009375,-0.0003125
3.303,0.000625,0
3.304,0.000625,0
3.305,0.000625,0
3.306,0.000625,0.0003125
3.307,0.000625,0.0003125
3.308,0.0003125,0.0003125
3.309,0.0003125,0.000625
3.31,0.0003125,0.000625
3.311,0.0003125,0.000625
3.312,0,0.0009375
3.313,0,0.0009375
3.314,0,0.0009375
3.315,-0.0003125,0.0009375
3.316,-0.0003125,0.0009375
3.317,-0.0003125,0.0009375
3.318,-0.0003125,0.0009375
3.319,-0.0003125,0.0009375
3.32,-0.0003125,0.0009375
3.321,-0.0003125,0.0009375
3.322,-0.0003125,0.0009375
3.323,-0.0003125,0.00125
3.324,-0.0003125,0.00125
3.325,-0.0003125,0.00125
3.326,-0.0003125,0.00125
3.327,-0.0003125,0.00125
3.328,-0.0003125,0.00125
3.329,-0.0003125,0.00125
3.33,-0.0003125,0.00125
3.331,-0.0003125,0.00125
3.332,-0.0003125,0.00125
3.333,-0.0003125,0.00125
3.334,-0.0003125,0.00125
3.335,-0.0003125,0.00125
3.336,-0.0003125,0.00125
3.337,-0.0003125,0.00125
3.338,-0.0003125,0.00125
3.339,-0.0003125,0.00125
3.34,-0.0003125,0.0015625
3.341,-0.0003125,0.0015625
3.342,-0.0003125,0.001875
3.343,-0.0003125,0.001875
3.344,-0.0003125,0.0021875
3.345,-0.0003125,0.0025
3.346,-0.0003125,0.0025
3.347,-0.0003125,0.0028125
3.348,-0.0003125,0.0028125
3.349,-0.0003125,0.0028125
3.35,-0.0003125,0.003125
3.351,-0.0003125,0.003125
3.352,-0.000625,0.0034375
3.353,-0.000625,0.0034375
3.354,-0.000625,0.0034375
3.355,-0.000625,0.0034375
3.356,-0.000625,0.0034375
3.357,-0.000625,0.0034375
3.358,-0.0009375,0.0034375
3.359,-0.0009375,0.00375
3.36,-0.0009375,0.00375
3.361,-0.0009375,0.00375
3.362,-0.0009375,0.00375
3.363,-0.0009375,0.00375
3.364,-0.0009375,0.00375
3.365,-0.0009375,0.00375
3.366,-0.0009375,0.00375
3.367,-0.0009375,0.00375
3.368,-0.00125,0.00375
3.369,-0.00125,0.00375
3.37,-0.00125,0.0034375
3.371,-0.00125,0.0034375
3.372,-0.00125,0.003125
3.373,-0.00125,0.003125
3.374,-0.00125,0.003125
3.375,-0.00125,0.0028125
3.376,-0.0015625,0.0028125
3.377,-0.0015625,0.0025
3.378,-0.0015625,0.0025
3.379,-0.001875,0.0025
3.38,-0.001875,0.0025
3.381,-0.001875,0.0025
3.382,-0.0021875,0.0025
3.383,-0.0021875,0.0025
3.384,-0.0025,0.0025
3.385,-0.0028125,0.0028125
3.386,-0.0028125,0.0028125
3.387,-0.003125,0.0028125
3.388,-0.0034375,0.003125
3.389,-0.0034375,0.003125
3.39,-0.0040625,0.0034375
3.391,-0.0040625,0.0034375
3.392,-0.004375,0.00375
3.393,-0.0046875,0.0040625
3.394,-0.005,0.004375
3.395,-0.005,0.004375
3.396,-0.005625,0.004375
3.397,-0.005625,0.0046875
3.398,-0.0059375,0.005
3.399,-0.00625,0.0053125
3.4,-0.00625,0.0053125
3.401,-0.0065625,0.005625
3.402,-0.006875,0.005625
3.403,-0.0071875,0.0059375
3.404,-0.0071875,0.00625
3.405,-0.0075,0.00625
3.406,-0.0075,0.0065625
3.407,-0.0078125,0.0065625
3.408,-0.0078125,0.0065625
3.409,-0.0078125,0.0065625
3.41,-0.008125,0.0065625
3.411,-0.008125,0.0065625
3.412,-0.008125,0.0065625
3.413,-0.0084375,0.0065625
3.414,-0.0084375,0.00625
3.415,-0.0084375,0.00625
3.416,-0.0084375,0.0059375
3.417,-0.0084375,0.005625
3.418,-0.0084375,0.005625
3.419,-0.008125,0.0053125
3.42,-0.008125,0.0053125
3.421,-0.008125,0.005
3.422,-0.008125,0.0046875
3.423,-0.0078125,0.004375
3.424,-0.0078125,0.004375
3.425,-0.0078125,0.00375
3.426,-0.0075,0.00375
3.427,-0.0075,0.0034375
3.428,-0.0075,0.003125
3.429,-0.0071875,0.003125
3.43,-0.0071875,0.0025
3.431,-0.006875,0.0021875
3.432,-0.006875,0.0021875
3.433,-0.0065625,0.001875
3.434,-0.0065625,0.001875
3.435,-0.00625,0.00125
3.436,-0.0059375,0.00125
3.437,-0.005625,0.00125
3.438,-0.005625,0.0009375
3.439,-0.005,0.0009375
3.44,-0.005,0.0009375
3.441,-0.004375,0.0009375
3.442,-0.0040625,0.00125
3.443,-0.00375,0.00125
3.444,-0.0034375,0.00125
3.445,-0.0028125,0.0015625
3.446,-0.0025,0.001875
3.447,-0.0021875,0.001875
3.448,-0.0015625,0.0025
3.449,-0.00125,0.0028125
3.45,-0.000625,0.003125
3.451,-0.0003125,0.00375
3.452,0.0003125,0.0040625
3.453,0.0009375,0.0046875
3.454,0.00125,0.005
3.455,0.0015625,0.0059375
3.456,0.0025,0.0065625
3.457,0.0028125,0.0075
3.458,0.003125,0.008125
3.459,0.00375,0.0090625
3.46,0.0046875,0.0096875
3.461,0.005,0.0109375
3.462,0.0053125,0.011875
3.463,0.00625,0.0128125
3.464,0.0065625,0.0140625
3.465,0.006875,0.015
3.466,0.0075,0.0159375
3.467,0.0078125,0.0171875
3.468,0.008125,0.018125
3.469,0.00875,0.0190625
3.47,0.00875,0.0203125
3.471,0.009375,0.02125
3.472,0.0096875,0.0221875
3.473,0.01,0.023125
3.474,0.01,0.0240625
3.475,0.0103125,0.025
3.476,0.010625,0.0259375
3.477,0.010625,0.0265625
3.478,0.0109375,0.0275
3.479,0.0109375,0.028125
3.48,0.0109375,0.0290625
3.481,0.01125,0.03
3.482,0.01125,0.0303125
3.483,0.01125,0.0309375
3.484,0.01125,0.031875
3.485,0.01125,0.0321875
3.486,0.01125,0.033125
3.487,0.01125,0.0334375
3.488,0.01125,0.03375
3.489,0.01125,0.0340625
3.49,0.01125,0.0346875
3.491,0.01125,0.0346875
3.492,0.01125,0.035
3.493,0.01125,0.0353125
3.494,0.01125,0.0353125
3.495,0.01125,0.0353125
3.496,0.01125,0.035625
3.497,0.01125,0.035625
3.498,0.01125,0.035625
3.499,0.01125,0.0359375
3.5,0.01125,0.0359375
3.501,0.01125,0.0359375
3.502,0.01125,0.0359375
3.503,0.01125,0.03625
3.504,0.01125,0.03625
3.505,0.01125,0.03625
3.506,0.01125,0.03625
3.507,0.0109375,0.0365625
3.508,0.0109375,0.0365625
3.509,0.0109375,0.0365625
3.51,0.0109375,0.0365625
3.511,0.0109375,0.0365625
3.512,0.0109375,0.0365625
3.513,0.0109375,0.03625
3.514,0.0109375,0.03625
3.515,0.0109375,0.03625
3.516,0.0109375,0.0359375
3.517,0.010625,0.0359375
3.518,0.010625,0.0359375
3.519,0.010625,0.035625
3.52,0.010625,0.035625
3.521,0.010625,0.0353125
3.522,0.010625,0.035
3.523,0.010625,0.0346875
3.524,0.010625,0.0346875
3.525,0.0103125,0.034375
3.526,0.0103125,0.0340625
3.527,0.0103125,0.03375
3.528,0.0103125,0.0334375
3.529,0.01,0.033125
3.53,0.01,0.0325
3.531,0.01,0.0321875
3.532,0.0096875,0.0315625
3.533,0.0096875,0.03125
3.534,0.0096875,0.0303125
3.535,0.009375,0.03
3.536,0.009375,0.0290625
3.537,0.009375,0.0284375
3.538,0.0090625,0.028125
3.539,0.0090625,0.0271875
3.54,0.0090625,0.02625
3.541,0.00875,0.0259375
3.542,0.00875,0.025
3.543,0.0084375,0.024375
3.544,0.0084375,0.02375
3.545,0.0084375,0.0228125
3.546,0.008125,0.021875
3.547,0.0078125,0.02125
3.548,0.0078125,0.020625
3.549,0.0075,0.02
3.55,0.0071875,0.0190625
3.551,0.0071875,0.018125
3.552,0.0065625,0.0175
3.553,0.0065625,0.016875
3.554,0.00625,0.0159375
3.555,0.0059375,0.015625
3.556,0.005625,0.0146875
3.557,0.005625,0.014375
3.558,0.005,0.0134375
3.559,0.0046875,0.013125
3.56,0.0046875,0.0125
3.561,0.004375,0.0121875
3.562,0.0040625,0.011875
3.563,0.00375,0.01125
3.564,0.00375,0.01125
3.565,0.003125,0.010625
3.566,0.003125,0.010625
3.567,0.0028125,0.01
3.568,0.0025,0.01
3.569,0.0025,0.0096875
3.57,0.0021875,0.009375
3.571,0.001875,0.009375
3.572,0.001875,0.00875
3.573,0.001875,0.00875
3.574,0.0015625,0.0084375
3.575,0.0015625,0.008125
3.576,0.0015625,0.0078125
3.577,0.0015625,0.0075
3.578,0.0015625,0.0071875
3.579,0.001875,0.0071875
3.58,0.001875,0.0065625
3.581,0.001875,0.00625
3.582,0.0021875,0.00625
3.583,0.0021875,0.0059375
3.584,0.0025,0.005625
3.585,0.0028125,0.005625
3.586,0.0028125,0.0053125
3.587,0.0028125,0.005
3.588,0.003125,0.005
3.589,0.0034375,0.004375
3.59,0.0034375,0.004375
3.591,0.00375,0.0040625
3.592,0.0040625,0.00375
3.593,0.004375,0.00375
3.594,0.004375,0.003125
3.595,0.0046875,0.003125
3.596,0.005,0.0028125
3.597,0.005,0.0025
3.598,0.005,0.0025
3.599,0.0053125,0.0021875
3.6,0.005625,0.001875
3.601,0.005625,0.0015625
3.602,0.0059375,0.0015625
3.603,0.0059375,0.00125
3.604,0.00625,0.00125
3.605,0.00625,0.00125
3.606,0.0065625,0.0009375
3.607,0.0065625,0.0009375
3.608,0.0065625,0.0009375
3.609,0.006875,0.0009375
3.61,0.006875,0.0009375
3.611,0.006875,0.000625
3.612,0.006875,0.000625
3.613,0.006875,0.000625
3.614,0.006875,0.000625
3.615,0.006875,0.0009375
3.616,0.006875,0.0009375
3.617,0.006875,0.0009375
3.618,0.006875,0.0009375
3.619,0.006875,0.0009375
3.62,0.006875,0.00125
3.621,0.006875,0.00125
3.622,0.006875,0.00125
3.623,0.006875,0.0015625
3.624,0.006875,0.0015625
3.625,0.006875,0.0015625
3.626,0.006875,0.0015625
3.627,0.006875,0.001875
3.628,0.006875,0.001875
3.629,0.006875,0.001875
3.63,0.006875,0.001875
3.631,0.006875,0.0015625
3.632,0.006875,0.0015625
3.633,0.006875,0.0015625
3.634,0.006875,0.0015625
3.635,0.0071875,0.0015625
3.636,0.0071875,0.0015625
3.637,0.0071875,0.0015625
3.638,0.0071875,0.0015625
3.639,0.0071875,0.0015625
3.64,0.0071875,0.001875
3.641,0.0071875,0.001875
3.642,0.0071875,0.001875
3.643,0.0071875,0.001875
3.644,0.0071875,0.0015625
3.645,0.0071875,0.0015625
3.646,0.006875,0.0015625
3.647,0.006875,0.0015625
3.648,0.006875,0.0015625
3.649,0.006875,0.00125
3.65,0.0065625,0.00125
3.651,0.0065625,0.00125
3.652,0.0065625,0.0009375
3.653,0.00625,0.000625
3.654,0.00625,0.0003125
3.655,0.0059375,0.0003125
3.656,0.0059375,0
3.657,0.005625,-0.0003125
3.658,0.005625,-0.0003125
3.659,0.0053125,-0.000625
3.66,0.0053125,-0.0009375
3.661,0.005,-0.0009375
3.662,0.005,-0.00125
3.663,0.0046875,-0.0015625
3.664,0.004375,-0.0015625
3.665,0.004375,-0.001875
3.666,0.0040625,-0.0021875
3.667,0.00375,-0.0021875
3.668,0.00375,-0.0025
3.669,0.0034375,-0.0028125
3.67,0.0034375,-0.003125
3.671,0.003125,-0.003125
3.672,0.003125,-0.0034375
3.673,0.003125,-0.00375
3.674,0.0028125,-0.00375
3.675,0.0028125,-0.0040625
3.676,0.0028125,-0.004375
3.677,0.0028125,-0.004375
3.678,0.0028125,-0.0046875
3.679,0.0028125,-0.0046875
3.68,0.003125,-0.0046875
3.681,0.003125,-0.0046875
3.682,0.003125,-0.0046875
3.683,0.003125,-0.0046875
3.684,0.003125,-0.0046875
3.685,0.0034375,-0.0046875
3.686,0.0034375,-0.0046875
3.687,0.0034375,-0.0046875
3.688,0.0034375,-0.0046875
3.689,0.00375,-0.004375
3.69,0.00375,-0.004375
3.691,0.00375,-0.004375
3.692,0.00375,-0.0040625
3.693,0.00375,-0.0040625
3.694,0.00375,-0.0040625
3.695,0.00375,-0.00375
3.696,0.00375,-0.00375
3.697,0.00375,-0.0034375
3.698,0.00375,-0.0034375
3.699,0.00375,-0.0034375
3.7,0.00375,-0.003125
3.701,0.0034375,-0.003125
3.702,0.0034375,-0.0028125
3.703,0.0034375,-0.0028125
3.704,0.0034375,-0.0028125
3.705,0.0034375,-0.0028125
3.706,0.003125,-0.0028125
3.707,0.003125,-0.0028125
3.708,0.003125,-0.0028125
3.709,0.0028125,-0.0028125
3.71,0.0028125,-0.0028125
3.711,0.0025,-0.003125
3.712,0.0025,-0.003125
3.713,0.0021875,-0.0034375
3.714,0.0021875,-0.0034375
3.715,0.0021875,-0.00375
3.716,0.001875,-0.0040625
3.717,0.001875,-0.004375
3.718,0.0015625,-0.004375
3.719,0.0015625,-0.0046875
3.72,0.0015625,-0.005
3.721,0.0015625,-0.005
3.722,0.0015625,-0.0053125
3.723,0.0015625,-0.005625
3.724,0.0015625,-0.005625
3.725,0.0015625,-0.0059375
3.726,0.0015625,-0.00625
3.727,0.0015625,-0.0065625
3.728,0.0015625,-0.0065625
3.729,0.0015625,-0.0065625
3.73,0.0015625,-0.006875
3.731,0.0015625,-0.0071875
3.732,0.0015625,-0.0071875
3.733,0.0015625,-0.0075
3.734,0.0015625,-0.0075
3.735,0.001875,-0.0075
3.736,0.001875,-0.0078125
3.737,0.0021875,-0.0078125
3.738,0.0021875,-0.0075
3.739,0.0021875,-0.0075
3.74,0.0025,-0.0075
3.741,0.0028125,-0.0075
3.742,0.003125,-0.0071875
3.743,0.003125,-0.006875
3.744,0.0034375,-0.0065625
3.745,0.0040625,-0.00625
3.746,0.004375,-0.0059375
3.747,0.0046875,-0.005625
3.748,0.0053125,-0.0053125
3.749,0.005625,-0.005
3.75,0.0059375,-0.004375
3.751,0.0065625,-0.0040625
3.752,0.0071875,-0.00375
3.753,0.0075,-0.0034375
3.754,0.0084375,-0.0028125
3.755,0.0090625,-0.0025
3.756,0.009375,-0.0021875
3.757,0.0103125,-0.001875
3.758,0.01125,-0.00125
3.759,0.0115625,-0.0009375
3.76,0.0125,-0.000625
3.761,0.0134375,0
3.762,0.0140625,0.0003125
3.763,0.0146875,0.0009375
3.764,0.015625,0.00125
3.765,0.01625,0.001875
3.766,0.016875,0.0021875
3.767,0.0178125,0.0025
3.768,0.01875,0.0028125
3.769,0.019375,0.0034375
3.77,0.02,0.00375
3.771,0.0209375,0.0040625
3.772,0.021875,0.004375
3.773,0.0225,0.004375
3.774,0.023125,0.005
3.775,0.0240625,0.005
3.776,0.024375,0.0053125
3.777,0.0253125,0.005625
3.778,0.025625,0.005625
3.779,0.02625,0.0059375
3.78,0.0271875,0.0059375
3.781,0.0275,0.00625
3.782,0.0278125,0.0065625
3.783,0.0284375,0.0065625
3.784,0.02875,0.006875
3.785,0.029375,0.006875
3.786,0.029375,0.0071875
3.787,0.0296875,0.0075
3.788,0.03,0.0075
3.789,0.0303125,0.0078125
3.79,0.0303125,0.0078125
3.791,0.0303125,0.008125
3.792,0.030625,0.008125
3.793,0.030625,0.0084375
3.794,0.030625,0.0084375
3.795,0.030625,0.0084375
3.796,0.0303125,0.00875
3.797,0.0303125,0.00875
3.798,0.0303125,0.0090625
3.799,0.03,0.0090625
3.8,0.03,0.0090625
3.801,0.0296875,0.009375
3.802,0.029375,0.009375
3.803,0.029375,0.009375
3.804,0.0290625,0.0096875
3.805,0.02875,0.0096875
3.806,0.0284375,0.0096875
3.807,0.028125,0.009375
3.808,0.0278125,0.009375
3.809,0.0271875,0.009375
3.81,0.0271875,0.0090625
3.811,0.0265625,0.00875
3.812,0.02625,0.00875
3.813,0.0259375,0.0084375
3.814,0.025625,0.008125
3.815,0.0253125,0.0075
3.816,0.0246875,0.0071875
3.817,0.0246875,0.0065625
3.818,0.0240625,0.00625
3.819,0.0240625,0.0059375
3.82,0.02375,0.005
3.821,0.0234375,0.0046875
3.822,0.023125,0.004375
3.823,0.0228125,0.0034375
3.824,0.0228125,0.003125
3.825,0.0225,0.0021875
3.826,0.0221875,0.0015625
3.827,0.021875,0.00125
3.828,0.021875,0.0003125
3.829,0.0215625,0
3.83,0.02125,-0.0009375
3.831,0.02125,-0.00125
3.832,0.020625,-0.001875
3.833,0.020625,-0.0028125
3.834,0.0203125,-0.003125
3.835,0.02,-0.0040625
3.836,0.0196875,-0.004375
3.837,0.0196875,-0.0046875
3.838,0.0190625,-0.0053125
3.839,0.0190625,-0.0059375
3.84,0.0184375,-0.00625
3.841,0.0184375,-0.0065625
3.842,0.0178125,-0.006875
3.843,0.0175,-0.0071875
3.844,0.0171875,-0.0075
3.845,0.016875,-0.0075
3.846,0.01625,-0.0075
3.847,0.0159375,-0.0075
3.848,0.015625,-0.0075
3.849,0.015,-0.0075
3.85,0.0146875,-0.0075
3.851,0.0140625,-0.0075
3.852,0.01375,-0.0075
3.853,0.0134375,-0.0075
3.854,0.0128125,-0.0075
3.855,0.0125,-0.0075
3.856,0.0121875,-0.0075
3.857,0.011875,-0.0075
3.858,0.0115625,-0.0075
3.859,0.01125,-0.0075
3.86,0.0109375,-0.0075
3.861,0.0109375,-0.0078125
3.862,0.0109375,-0.0078125
3.863,0.010625,-0.008125
3.864,0.010625,-0.008125
3.865,0.0103125,-0.008125
3.866,0.0103125,-0.00875
3.867,0.010625,-0.00875
3.868,0.010625,-0.0090625
3.869,0.010625,-0.009375
3.87,0.010625,-0.0096875
3.871,0.010625,-0.01
3.872,0.0109375,-0.010625
3.873,0.0109375,-0.0109375
3.874,0.01125,-0.0115625
3.875,0.0115625,-0.011875
3.876,0.0115625,-0.0121875
3.877,0.011875,-0.0128125
3.878,0.0121875,-0.0134375
3.879,0.0121875,-0.01375
3.88,0.0125,-0.014375
3.881,0.013125,-0.0146875
3.882,0.013125,-0.0153125
3.883,0.0134375,-0.015625
3.884,0.01375,-0.0159375
3.885,0.01375,-0.01625
3.886,0.0140625,-0.01625
3.887,0.014375,-0.016875
3.888,0.014375,-0.016875
3.889,0.0146875,-0.016875
3.89,0.0146875,-0.0171875
3.891,0.0146875,-0.0171875
3.892,0.015,-0.0171875
3.893,0.015,-0.0171875
3.894,0.0146875,-0.016875
3.895,0.0146875,-0.016875
3.896,0.0146875,-0.016875
3.897,0.0146875,-0.0165625
3.898,0.0146875,-0.01625
3.899,0.014375,-0.0159375
3.9,0.014375,-0.015625
3.901,0.014375,-0.0153125
3.902,0.0140625,-0.015
3.903,0.0140625,-0.0146875
3.904,0.01375,-0.0140625
3.905,0.0134375,-0.01375
3.906,0.013125,-0.013125
3.907,0.013125,-0.0128125
3.908,0.0128125,-0.0121875
3.909,0.0125,-0.011875
3.91,0.0121875,-0.01125
3.911,0.011875,-0.0109375
3.912,0.011875,-0.010625
3.913,0.0115625,-0.01
3.914,0.01125,-0.0096875
3.915,0.010625,-0.009375
3.916,0.010625,-0.00875
3.917,0.0103125,-0.0084375
3.918,0.01,-0.008125
3.919,0.01,-0.0075
3.92,0.0096875,-0.0071875
3.921,0.009375,-0.006875
3.922,0.009375,-0.00625
3.923,0.0090625,-0.0059375
3.924,0.00875,-0.005625
3.925,0.00875,-0.0053125
3.926,0.0084375,-0.0046875
3.927,0.0084375,-0.004375
3.928,0.0084375,-0.0040625
3.929,0.008125,-0.00375
3.93,0.008125,-0.0034375
3.931,0.008125,-0.003125
3.932,0.0078125,-0.0028125
3.933,0.0078125,-0.0025
3.934,0.0078125,-0.0025
3.935,0.0078125,-0.001875
3.936,0.0078125,-0.001875
3.937,0.0078125,-0.0015625
3.938,0.008125,-0.00125
3.939,0.008125,-0.00125
3.94,0.008125,-0.000625
3.941,0.008125,-0.000625
3.942,0.008125,-0.0003125
3.943,0.0084375,0
3.944,0.0084375,0.0003125
3.945,0.00875,0.0003125
3.946,0.00875,0.0009375
3.947,0.00875,0.0009375
3.948,0.0090625,0.00125
3.949,0.0090625,0.00125
3.95,0.009375,0.0015625
3.951,0.0096875,0.001875
3.952,0.0096875,0.001875
3.953,0.0096875,0.0021875
3.954,0.01,0.0021875
3.955,0.0103125,0.0025
3.956,0.010625,0.0025
3.957,0.010625,0.0028125
3.958,0.010625,0.0028125
3.959,0.0109375,0.003125
3.96,0.01125,0.003125
3.961,0.01125,0.003125
3.962,0.0115625,0.0034375
3.963,0.0115625,0.0034375
3.964,0.011875,0.00375
3.965,0.011875,0.00375
3.966,0.0121875,0.00375
3.967,0.0121875,0.00375
3.968,0.0125,0.00375
3.969,0.0125,0.00375
3.97,0.0125,0.00375
3.971,0.0128125,0.00375
3.972,0.0128125,0.00375
3.973,0.013125,0.00375
3.974,0.013125,0.0034375
3.975,0.013125,0.0034375
3.976,0.013125,0.0034375
3.977,0.0134375,0.003125
3.978,0.0134375,0.003125
3.979,0.0134375,0.003125
3.98,0.01375,0.0028125
3.981,0.01375,0.0028125
3.982,0.01375,0.0025
3.983,0.01375,0.0025
3.984,0.0140625,0.0021875
3.985,0.0140625,0.0021875
3.986,0.0140625,0.001875
3.987,0.014375,0.001875
3.988,0.014375,0.0015625
3.989,0.014375,0.0015625
3.99,0.014375,0.0015625
3.991,0.014375,0.00125
3.992,0.0146875,0.00125
3.993,0.0146875,0.0009375
3.994,0.0146875,0.0009375
3.995,0.0146875,0.0009375
3.996,0.0146875,0.0009375
3.997,0.0146875,0.0009375
3.998,0.015,0.0009375
3.999,0.015,0.00125
4,0.015,0.00125
4.001,0.015,0.00125
4.002,0.015,0.0015625
4.003,0.015,0.0015625
4.004,0.015,0.001875
4.005,0.015,0.001875
4.006,0.015,0.001875
4.007,0.015,0.0021875
4.008,0.015,0.0021875
4.009,0.0146875,0.0025
4.01,0.0146875,0.0025
4.011,0.0146875,0.0025
4.012,0.0146875,0.0025
4.013,0.0146875,0.0028125
4.014,0.014375,0.0028125
4.015,0.014375,0.0028125
4.016,0.014375,0.0028125
4.017,0.0140625,0.0028125
4.018,0.0140625,0.0025
4.019,0.0140625,0.0025
4.02,0.0140625,0.0025
4.021,0.01375,0.0025
4.022,0.01375,0.0025
4.023,0.0134375,0.0025
4.024,0.0134375,0.0025
4.025,0.0134375,0.0025
4.026,0.013125,0.0025
4.027,0.013125,0.0021875
4.028,0.013125,0.0021875
4.029,0.013125,0.001875
4.03,0.013125,0.001875
4.031,0.013125,0.001875
4.032,0.013125,0.0015625
4.033,0.013125,0.0015625
4.034,0.013125,0.0015625
4.035,0.013125,0.00125
4.036,0.013125,0.00125
4.037,0.013125,0.00125
4.038,0.013125,0.00125
4.039,0.013125,0.00125
4.04,0.013125,0.00125
4.041,0.013125,0.0015625
4.042,0.0134375,0.0015625
4.043,0.0134375,0.0015625
4.044,0.0134375,0.001875
4.045,0.0134375,0.001875
4.046,0.0134375,0.0021875
4.047,0.0134375,0.0021875
4.048,0.0134375,0.0025
4.049,0.0134375,0.0025
4.05,0.0134375,0.0028125
4.051,0.013125,0.0028125
4.052,0.013125,0.0028125
4.053,0.013125,0.003125
4.054,0.013125,0.003125
4.055,0.013125,0.003125
4.056,0.013125,0.0034375
4.057,0.013125,0.0034375
4.058,0.0128125,0.0034375
4.059,0.0128125,0.00375
4.06,0.0128125,0.00375
4.061,0.0125,0.00375
4.062,0.0125,0.00375
4.063,0.0125,0.0040625
4.064,0.0121875,0.0040625
4.065,0.0121875,0.004375
4.066,0.011875,0.004375
4.067,0.0115625,0.004375
4.068,0.0115625,0.004375
4.069,0.01125,0.004375
4.07,0.01125,0.004375
4.071,0.0109375,0.004375
4.072,0.0109375,0.004375
4.073,0.0109375,0.004375
4.074,0.010625,0.0040625
4.075,0.010625,0.0040625
4.076,0.010625,0.0040625
4.077,0.0103125,0.00375
4.078,0.0103125,0.00375
4.079,0.0103125,0.0034375
4.08,0.0103125,0.0034375
4.081,0.010625,0.0034375
4.082,0.010625,0.003125
4.083,0.010625,0.003125
4.084,0.010625,0.003125
4.085,0.010625,0.0028125
4.086,0.010625,0.0028125
4.087,0.010625,0.0028125
4.088,0.010625,0.0028125
4.089,0.010625,0.0028125
4.09,0.010625,0.0028125
4.091,0.010625,0.0025
4.092,0.010625,0.0025
4.093,0.010625,0.0025
4.094,0.0103125,0.0025
4.095,0.0103125,0.0025
4.096,0.0103125,0.0025
4.097,0.0096875,0.0021875
4.098,0.0096875,0.0021875
4.099,0.009375,0.0021875
4.1,0.0090625,0.0021875
4.101,0.0084375,0.0021875
4.102,0.008125,0.001875
4.103,0.0078125,0.001875
4.104,0.0071875,0.001875
4.105,0.00625,0.0015625
4.106,0.0059375,0.0015625
4.107,0.005,0.0015625
4.108,0.004375,0.00125
4.109,0.0034375,0.00125
4.11,0.0028125,0.00125
4.111,0.001875,0.0009375
4.112,0.0009375,0.000625
4.113,0,0.0003125
4.114,-0.0009375,0.0003125
4.115,-0.001875,0
4.116,-0.003125,0
4.117,-0.0040625,-0.000625
4.118,-0.005,-0.000625
4.119,-0.00625,-0.0009375
4.12,-0.0071875,-0.00125
4.121,-0.0078125,-0.0015625
4.122,-0.0090625,-0.001875
4.123,-0.01,-0.0021875
4.124,-0.0109375,-0.0025
4.125,-0.011875,-0.0028125
4.126,-0.0128125,-0.003125
4.127,-0.0134375,-0.00375
4.128,-0.014375,-0.0040625
4.129,-0.015,-0.004375
4.13,-0.0159375,-0.0046875
4.131,-0.016875,-0.0053125
4.132,-0.0171875,-0.0053125
4.133,-0.018125,-0.0059375
4.134,-0.0184375,-0.00625
4.135,-0.01875,-0.00625
4.136,-0.019375,-0.006875
4.137,-0.0196875,-0.006875
4.138,-0.0203125,-0.0071875
4.139,-0.020625,-0.0075
4.14,-0.0209375,-0.0075
4.141,-0.02125,-0.0078125
4.142,-0.0215625,-0.0078125
4.143,-0.021875,-0.0078125
4.144,-0.021875,-0.008125
4.145,-0.0225,-0.008125
4.146,-0.0225,-0.008125
4.147,-0.0228125,-0.008125
4.148,-0.0228125,-0.008125
4.149,-0.0228125,-0.008125
4.15,-0.023125,-0.008125
4.151,-0.023125,-0.0084375
4.152,-0.0234375,-0.0084375
4.153,-0.0234375,-0.0084375
4.154,-0.0234375,-0.0084375
4.155,-0.02375,-0.0084375
4.156,-0.02375,-0.0084375
4.157,-0.02375,-0.0084375
4.158,-0.02375,-0.0084375
4.159,-0.0240625,-0.0084375
4.16,-0.0240625,-0.0084375
4.161,-0.0240625,-0.0084375
4.162,-0.0240625,-0.0084375
4.163,-0.0240625,-0.00875
4.164,-0.0240625,-0.00875
4.165,-0.024375,-0.00875
4.166,-0.024375,-0.00875
4.167,-0.024375,-0.00875
4.168,-0.024375,-0.00875
4.169,-0.024375,-0.00875
4.17,-0.024375,-0.0090625
4.171,-0.024375,-0.0090625
4.172,-0.0246875,-0.009375
4.173,-0.0246875,-0.009375
4.174,-0.0246875,-0.009375
4.175,-0.0246875,-0.0096875
4.176,-0.0246875,-0.0096875
4.177,-0.0246875,-0.0096875
4.178,-0.024375,-0.01
4.179,-0.024375,-0.01
4.18,-0.024375,-0.01
4.181,-0.024375,-0.0103125
4.182,-0.024375,-0.0103125
4.183,-0.024375,-0.0103125
4.184,-0.024375,-0.010625
4.185,-0.024375,-0.010625
4.186,-0.024375,-0.010625
4.187,-0.024375,-0.010625
4.188,-0.024375,-0.010625
4.189,-0.024375,-0.0109375
4.19,-0.024375,-0.0109375
4.191,-0.024375,-0.0109375
4.192,-0.024375,-0.0109375
4.193,-0.024375,-0.0109375
4.194,-0.024375,-0.0109375
4.195,-0.024375,-0.010625
4.196,-0.024375,-0.010625
4.197,-0.024375,-0.010625
4.198,-0.024375,-0.010625
4.199,-0.0240625,-0.010625
4.2,-0.0240625,-0.0103125
4.201,-0.0240625,-0.0103125
4.202,-0.0240625,-0.01
4.203,-0.0240625,-0.0096875
4.204,-0.02375,-0.0096875
4.205,-0.02375,-0.009375
4.206,-0.02375,-0.0090625
4.207,-0.02375,-0.0090625
4.208,-0.02375,-0.00875
4.209,-0.02375,-0.0084375
4.21,-0.02375,-0.0084375
4.211,-0.0234375,-0.0078125
4.212,-0.0234375,-0.0075
4.213,-0.0234375,-0.0075
4.214,-0.0234375,-0.006875
4.215,-0.0234375,-0.006875
4.216,-0.023125,-0.0065625
4.217,-0.023125,-0.0059375
4.218,-0.023125,-0.0059375
4.219,-0.023125,-0.005625
4.22,-0.023125,-0.0053125
4.221,-0.0228125,-0.005
4.222,-0.0228125,-0.005
4.223,-0.0228125,-0.0046875
4.224,-0.0225,-0.004375
4.225,-0.0225,-0.004375
4.226,-0.0221875,-0.004375
4.227,-0.0221875,-0.0040625
4.228,-0.0221875,-0.0040625
4.229,-0.021875,-0.0040625
4.23,-0.021875,-0.0040625
4.231,-0.0215625,-0.0040625
4.232,-0.0215625,-0.0040625
4.233,-0.0215625,-0.004375
4.234,-0.02125,-0.004375
4.235,-0.02125,-0.004375
4.236,-0.02125,-0.0046875
4.237,-0.0209375,-0.0046875
4.238,-0.0209375,-0.005
4.239,-0.020625,-0.0053125
4.24,-0.020625,-0.005625
4.241,-0.020625,-0.005625
4.242,-0.0203125,-0.0059375
4.243,-0.0203125,-0.00625
4.244,-0.0203125,-0.00625
4.245,-0.02,-0.0065625
4.246,-0.02,-0.0065625
4.247,-0.02,-0.006875
4.248,-0.02,-0.0071875
4.249,-0.02,-0.0075
4.25,-0.0196875,-0.0075
4.251,-0.0196875,-0.0075
4.252,-0.0196875,-0.0078125
4.253,-0.019375,-0.0078125
4.254,-0.019375,-0.0078125
4.255,-0.019375,-0.008125
4.256,-0.019375,-0.008125
4.257,-0.019375,-0.0078125
4.258,-0.0190625,-0.0078125
4.259,-0.0190625,-0.0078125
4.26,-0.0190625,-0.0078125
4.261,-0.01875,-0.0075
4.262,-0.01875,-0.0075
4.263,-0.01875,-0.0071875
4.264,-0.0184375,-0.0071875
4.265,-0.0184375,-0.0071875
4.266,-0.0184375,-0.0065625
4.267,-0.0184375,-0.0065625
4.268,-0.018125,-0.00625
4.269,-0.018125,-0.00625
4.27,-0.018125,-0.005625
4.271,-0.0178125,-0.005625
4.272,-0.0178125,-0.0053125
4.273,-0.0178125,-0.005
4.274,-0.0175,-0.005
4.275,-0.0175,-0.004375
4.276,-0.0171875,-0.004375
4.277,-0.0171875,-0.0040625
4.278,-0.016875,-0.00375
4.279,-0.0165625,-0.00375
4.28,-0.0165625,-0.00375
4.281,-0.01625,-0.0034375
4.282,-0.01625,-0.003125
4.283,-0.0159375,-0.003125
4.284,-0.0159375,-0.0028125
4.285,-0.0159375,-0.0028125
4.286,-0.015625,-0.0028125
4.287,-0.015625,-0.0025
4.288,-0.015625,-0.0025
4.289,-0.015625,-0.0025
4.29,-0.0153125,-0.0025
4.291,-0.0153125,-0.0021875
4.292,-0.0153125,-0.0021875
4.293,-0.0153125,-0.0021875
4.294,-0.0153125,-0.0021875
4.295,-0.0153125,-0.0021875
4.296,-0.0153125,-0.0021875
4.297,-0.0153125,-0.0021875
4.298,-0.0153125,-0.001875
4.299,-0.0153125,-0.001875
4.3,-0.0153125,-0.001875
4.301,-0.015625,-0.001875
4.302,-0.015625,-0.001875
4.303,-0.015625,-0.001875
4.304,-0.015625,-0.001875
4.305,-0.015625,-0.0015625
4.306,-0.015625,-0.0015625
4.307,-0.015625,-0.0015625
4.308,-0.015625,-0.0015625
4.309,-0.0159375,-0.00125
4.31,-0.0159375,-0.00125
4.311,-0.0159375,-0.00125
4.312,-0.01625,-0.0009375
4.313,-0.01625,-0.0009375
4.314,-0.01625,-0.000625
4.315,-0.0165625,-0.0003125
4.316,-0.0165625,-0.0003125
4.317,-0.0165625,0
4.318,-0.0165625,0.0003125
4.319,-0.016875,0.0003125
4.32,-0.016875,0.000625
4.321,-0.016875,0.0009375
4.322,-0.016875,0.0009375
4.323,-0.016875,0.0015625
4.324,-0.016875,0.0015625
4.325,-0.016875,0.001875
4.326,-0.016875,0.0021875
4.327,-0.016875,0.0021875
4.328,-0.016875,0.0025
4.329,-0.016875,0.0028125
4.33,-0.016875,0.003125
4.331,-0.016875,0.003125
4.332,-0.016875,0.0034375
4.333,-0.016875,0.00375
4.334,-0.016875,0.00375
4.335,-0.016875,0.0040625
4.336,-0.016875,0.004375
4.337,-0.016875,0.004375
4.338,-0.016875,0.0046875
4.339,-0.016875,0.005
4.34,-0.0165625,0.0053125
4.341,-0.0165625,0.0053125
4.342,-0.0165625,0.0053125
4.343,-0.01625,0.005625
4.344,-0.01625,0.0059375
4.345,-0.01625,0.0059375
4.346,-0.0159375,0.00625
4.347,-0.0159375,0.00625
4.348,-0.015625,0.0065625
4.349,-0.015625,0.0065625
4.35,-0.015625,0.0065625
4.351,-0.0153125,0.006875
4.352,-0.0153125,0.006875
4.353,-0.015,0.0071875
4.354,-0.015,0.0071875
4.355,-0.0146875,0.0075
4.356,-0.0146875,0.0075
4.357,-0.0146875,0.0078125
4.358,-0.014375,0.0078125
4.359,-0.014375,0.008125
4.36,-0.0140625,0.0084375
4.361,-0.0140625,0.00875
4.362,-0.0140625,0.00875
4.363,-0.01375,0.0090625
4.364,-0.01375,0.009375
4.365,-0.0134375,0.009375
4.366,-0.0134375,0.0096875
4.367,-0.013125,0.0096875
4.368,-0.013125,0.0096875
4.369,-0.0128125,0.01
4.37,-0.0125,0.01
4.371,-0.0125,0.0103125
4.372,-0.0125,0.0103125
4.373,-0.0121875,0.0103125
4.374,-0.011875,0.0103125
4.375,-0.0115625,0.0103125
4.376,-0.0115625,0.0103125
4.377,-0.01125,0.0103125
4.378,-0.01125,0.0103125
4.379,-0.0109375,0.010625
4.38,-0.010625,0.010625
4.381,-0.010625,0.010625
4.382,-0.01,0.010625
4.383,-0.01,0.010625
4.384,-0.0096875,0.010625
4.385,-0.0096875,0.010625
4.386,-0.009375,0.010625
4.387,-0.0090625,0.010625
4.388,-0.0090625,0.0109375
4.389,-0.00875,0.0109375
4.39,-0.00875,0.0109375
4.391,-0.0084375,0.0109375
4.392,-0.0084375,0.0109375
4.393,-0.0084375,0.0109375
4.394,-0.008125,0.01125
4.395,-0.008125,0.01125
4.396,-0.008125,0.01125
4.397,-0.008125,0.0115625
4.398,-0.0078125,0.0115625
4.399,-0.0078125,0.0115625
4.4,-0.0078125,0.011875
4.401,-0.0078125,0.011875
4.402,-0.0078125,0.011875
4.403,-0.0078125,0.0121875
4.404,-0.0078125,0.0121875
4.405,-0.008125,0.0121875
4.406,-0.008125,0.0125
4.407,-0.008125,0.0125
4.408,-0.008125,0.0125
4.409,-0.008125,0.0128125
4.41,-0.0084375,0.0128125
4.411,-0.0084375,0.0128125
4.412,-0.0084375,0.0128125
4.413,-0.0084375,0.0128125
4.414,-0.00875,0.0128125
4.415,-0.00875,0.0128125
4.416,-0.00875,0.0128125
4.417,-0.0090625,0.0128125
4.418,-0.0090625,0.0128125
4.419,-0.0090625,0.0128125
4.42,-0.009375,0.0125
4.421,-0.009375,0.0125
4.422,-0.009375,0.0125
4.423,-0.009375,0.0125
4.424,-0.0096875,0.0125
4.425,-0.0096875,0.0121875
4.426,-0.0096875,0.0121875
4.427,-0.0096875,0.0121875
4.428,-0.0096875,0.0121875
4.429,-0.01,0.0121875
4.43,-0.01,0.0121875
4.431,-0.01,0.0121875
4.432,-0.01,0.0121875
4.433,-0.01,0.0121875
4.434,-0.0103125,0.0121875
4.435,-0.0103125,0.0121875
4.436,-0.0103125,0.0125
4.437,-0.0103125,0.0125
4.438,-0.0103125,0.0125
4.439,-0.010625,0.0125
4.44,-0.010625,0.0125
4.441,-0.010625,0.0128125
4.442,-0.010625,0.0128125
4.443,-0.010625,0.0128125
4.444,-0.010625,0.0128125
4.445,-0.010625,0.0128125
4.446,-0.010625,0.0128125
4.447,-0.010625,0.0128125
4.448,-0.010625,0.0128125
4.449,-0.0103125,0.0128125
4.45,-0.0103125,0.0128125
4.451,-0.0103125,0.0128125
4.452,-0.0103125,0.0128125
4.453,-0.0103125,0.0128125
4.454,-0.0103125,0.0128125
4.455,-0.01,0.0128125
4.456,-0.01,0.0128125
4.457,-0.01,0.0128125
4.458,-0.0096875,0.0128125
4.459,-0.0096875,0.0128125
4.46,-0.0096875,0.0128125
4.461,-0.009375,0.013125
4.462,-0.009375,0.013125
4.463,-0.009375,0.013125
4.464,-0.0090625,0.013125
4.465,-0.0090625,0.013125
4.466,-0.00875,0.013125
4.467,-0.00875,0.013125
4.468,-0.00875,0.0134375
4.469,-0.0084375,0.0134375
4.47,-0.0084375,0.0134375
4.471,-0.0084375,0.01375
4.472,-0.008125,0.01375
4.473,-0.008125,0.0140625
4.474,-0.008125,0.014375
4.475,-0.008125,0.014375
4.476,-0.008125,0.0146875
4.477,-0.008125,0.0146875
4.478,-0.0078125,0.015
4.479,-0.0078125,0.0153125
4.48,-0.0078125,0.015625
4.481,-0.0078125,0.015625
4.482,-0.0078125,0.015625
4.483,-0.0075,0.0159375
4.484,-0.0075,0.0159375
4.485,-0.0075,0.0159375
4.486,-0.0071875,0.01625
4.487,-0.006875,0.01625
4.488,-0.0065625,0.01625
4.489,-0.0065625,0.0159375
4.49,-0.00625,0.0159375
4.491,-0.0059375,0.0159375
4.492,-0.005625,0.015625
4.493,-0.005,0.015625
4.494,-0.0046875,0.0153125
4.495,-0.0040625,0.015
4.496,-0.00375,0.015
4.497,-0.0034375,0.014375
4.498,-0.0028125,0.014375
4.499,-0.0025,0.01375
4.5,-0.0015625,0.0134375
4.501,-0.00125,0.013125
4.502,-0.0009375,0.0128125
4.503,0,0.0121875
4.504,0.0003125,0.011875
4.505,0.0009375,0.0115625
4.506,0.001875,0.01125
4.507,0.0021875,0.010625
4.508,0.0028125,0.0103125
4.509,0.0034375,0.01
4.51,0.00375,0.009375
4.511,0.0046875,0.0090625
4.512,0.005,0.00875
4.513,0.0059375,0.0084375
4.514,0.00625,0.0078125
4.515,0.0065625,0.0078125
4.516,0.0071875,0.0071875
4.517,0.0078125,0.0071875
4.518,0.008125,0.0065625
4.519,0.0084375,0.0065625
4.52,0.0090625,0.00625
4.521,0.009375,0.0059375
4.522,0.0096875,0.0059375
4.523,0.01,0.0053125
4.524,0.0103125,0.005
4.525,0.010625,0.005
4.526,0.010625,0.0046875
4.527,0.01125,0.004375
4.528,0.01125,0.0040625
4.529,0.0115625,0.00375
4.53,0.0115625,0.0034375
4.531,0.011875,0.003125
4.532,0.0121875,0.0028125
4.533,0.0121875,0.0025
4.534,0.0125,0.0021875
4.535,0.0125,0.001875
4.536,0.0128125,0.0015625
4.537,0.0128125,0.00125
4.538,0.013125,0.0009375
4.539,0.013125,0.0003125
4.54,0.013125,0.0003125
4.541,0.0134375,-0.0003125
4.542,0.0134375,-0.000625
4.543,0.0134375,-0.0009375
4.544,0.01375,-0.00125
4.545,0.01375,-0.001875
4.546,0.01375,-0.0021875
4.547,0.01375,-0.0025
4.548,0.01375,-0.0028125
4.549,0.01375,-0.0034375
4.55,0.01375,-0.0034375
4.551,0.01375,-0.0040625
4.552,0.01375,-0.0040625
4.553,0.01375,-0.0046875
4.554,0.01375,-0.0046875
4.555,0.01375,-0.005
4.556,0.0134375,-0.0053125
4.557,0.0134375,-0.005625
4.558,0.013125,-0.005625
4.559,0.013125,-0.005625
4.56,0.013125,-0.0059375
4.561,0.0128125,-0.00625
4.562,0.0128125,-0.00625
4.563,0.0125,-0.0065625
4.564,0.0125,-0.0065625
4.565,0.0121875,-0.006875
4.566,0.0121875,-0.0071875
4.567,0.011875,-0.0071875
4.568,0.011875,-0.0078125
4.569,0.0115625,-0.0078125
4.57,0.0115625,-0.008125
4.571,0.0115625,-0.0084375
4.572,0.01125,-0.00875
4.573,0.01125,-0.0090625
4.574,0.0109375,-0.009375
4.575,0.0109375,-0.0096875
4.576,0.010625,-0.01
4.577,0.0103125,-0.0103125
4.578,0.0103125,-0.010625
4.579,0.01,-0.01125
4.58,0.01,-0.0115625
4.581,0.0096875,-0.0121875
4.582,0.009375,-0.0125
4.583,0.009375,-0.013125
4.584,0.0090625,-0.0134375
4.585,0.0090625,-0.014375
4.586,0.00875,-0.015
4.587,0.00875,-0.0153125
4.588,0.00875,-0.0159375
4.589,0.0084375,-0.0165625
4.59,0.0084375,-0.0171875
4.591,0.0084375,-0.0175
4.592,0.008125,-0.0184375
4.593,0.008125,-0.01875
4.594,0.0078125,-0.0196875
4.595,0.0078125,-0.02
4.596,0.0075,-0.020625
4.597,0.0075,-0.0209375
4.598,0.0075,-0.0215625
4.599,0.0071875,-0.021875
4.6,0.0071875,-0.0221875
4.601,0.0071875,-0.0225
4.602,0.006875,-0.0228125
4.603,0.006875,-0.023125
4.604,0.0065625,-0.0234375
4.605,0.0065625,-0.02375
4.606,0.0065625,-0.02375
4.607,0.00625,-0.024375
4.608,0.00625,-0.024375
4.609,0.00625,-0.0246875
4.61,0.00625,-0.025
4.611,0.00625,-0.025
4.612,0.00625,-0.025
4.613,0.00625,-0.0253125
4.614,0.00625,-0.025625
4.615,0.00625,-0.025625
4.616,0.00625,-0.025625
4.617,0.00625,-0.0259375
4.618,0.0065625,-0.0259375
4.619,0.0065625,-0.02625
4.62,0.0065625,-0.02625
4.621,0.0065625,-0.02625
4.622,0.0065625,-0.02625
4.623,0.0065625,-0.02625
4.624,0.0065625,-0.02625
4.625,0.0065625,-0.02625
