Interval=,0.001 s,
ExcelDateTime=,4.54E+04,57:30.1
TimeFormat=,StartOfBlock,
DateFormat=,,
ChannelTitle=,Channel 3,Channel 4
Range=,10.000 mV,10.000 mV
0,0,0
0.001,0,0
0.002,-0.0003125,0
0.003,-0.0003125,-0.0003125
0.004,-0.0003125,-0.0003125
0.005,-0.0003125,-0.0003125
0.006,-0.0003125,-0.0003125
0.007,-0.0003125,-0.0003125
0.008,-0.000625,-0.0003125
0.009,-0.0009375,-0.0003125
0.01,-0.00125,-0.000625
0.011,-0.001875,-0.000625
0.012,-0.0021875,-0.0009375
0.013,-0.0028125,-0.0009375
0.014,-0.00375,-0.00125
0.015,-0.0046875,-0.0015625
0.016,-0.0059375,-0.0015625
0.017,-0.0071875,-0.0015625
0.018,-0.0084375,-0.001875
0.019,-0.0103125,-0.0021875
0.02,-0.011875,-0.0021875
0.021,-0.014375,-0.0021875
0.022,-0.0165625,-0.0025
0.023,-0.0190625,-0.0025
0.024,-0.0221875,-0.0028125
0.025,-0.025,-0.0028125
0.026,-0.028125,-0.0028125
0.027,-0.0315625,-0.003125
0.028,-0.0353125,-0.003125
0.029,-0.0390625,-0.003125
0.03,-0.043125,-0.0034375
0.031,-0.0475,-0.0034375
0.032,-0.0515625,-0.00375
0.033,-0.05625,-0.0040625
0.034,-0.0609375,-0.004375
0.035,-0.0653125,-0.004375
0.036,-0.0703125,-0.004375
0.037,-0.0753125,-0.0046875
0.038,-0.0803125,-0.0046875
0.039,-0.0853125,-0.005
0.04,-0.0903125,-0.005
0.041,-0.0953125,-0.0046875
0.042,-0.100625,-0.0046875
0.043,-0.105625,-0.0046875
0.044,-0.110625,-0.004375
0.045,-0.1159375,-0.004375
0.046,-0.1209375,-0.0040625
0.047,-0.125625,-0.00375
0.048,-0.130625,-0.0034375
0.049,-0.1353125,-0.0034375
0.05,-0.139375,-0.003125
0.051,-0.14375,-0.003125
0.052,-0.148125,-0.0028125
0.053,-0.151875,-0.0025
0.054,-0.155625,-0.0025
0.055,-0.15875,-0.0021875
0.056,-0.1621875,-0.001875
0.057,-0.1653125,-0.001875
0.058,-0.168125,-0.0015625
0.059,-0.170625,-0.00125
0.06,-0.1728125,-0.0009375
0.061,-0.1753125,-0.000625
0.062,-0.1775,-0.0003125
0.063,-0.1790625,0.0003125
0.064,-0.18125,0.000625
0.065,-0.1828125,0.00125
0.066,-0.184375,0.0015625
0.067,-0.1859375,0.0021875
0.068,-0.1871875,0.0025
0.069,-0.1884375,0.0028125
0.07,-0.1896875,0.003125
0.071,-0.1909375,0.0034375
0.072,-0.1915625,0.00375
0.073,-0.1925,0.00375
0.074,-0.193125,0.0040625
0.075,-0.1934375,0.0040625
0.076,-0.19375,0.004375
0.077,-0.194375,0.004375
0.078,-0.194375,0.004375
0.079,-0.194375,0.0046875
0.08,-0.1946875,0.0046875
0.081,-0.1946875,0.0046875
0.082,-0.1946875,0.005
0.083,-0.1946875,0.005
0.084,-0.1946875,0.0053125
0.085,-0.194375,0.005625
0.086,-0.194375,0.0059375
0.087,-0.194375,0.0059375
0.088,-0.194375,0.0059375
0.089,-0.194375,0.00625
0.09,-0.1940625,0.00625
0.091,-0.1940625,0.00625
0.092,-0.19375,0.00625
0.093,-0.1934375,0.00625
0.094,-0.193125,0.00625
0.095,-0.1928125,0.0059375
0.096,-0.1921875,0.0059375
0.097,-0.1915625,0.0059375
0.098,-0.19125,0.0059375
0.099,-0.1909375,0.00625
0.1,-0.1903125,0.00625
0.101,-0.19,0.00625
0.102,-0.189375,0.0065625
0.103,-0.1890625,0.0065625
0.104,-0.18875,0.006875
0.105,-0.188125,0.0075
0.106,-0.1878125,0.0075
0.107,-0.1878125,0.0078125
0.108,-0.1871875,0.008125
0.109,-0.1871875,0.0084375
0.11,-0.186875,0.00875
0.111,-0.1865625,0.00875
0.112,-0.1865625,0.0090625
0.113,-0.18625,0.0090625
0.114,-0.1859375,0.0090625
0.115,-0.185625,0.009375
0.116,-0.1853125,0.009375
0.117,-0.185,0.009375
0.118,-0.1846875,0.0096875
0.119,-0.184375,0.01
0.12,-0.1840625,0.0103125
0.121,-0.18375,0.0103125
0.122,-0.18375,0.010625
0.123,-0.183125,0.01125
0.124,-0.183125,0.01125
0.125,-0.183125,0.011875
0.126,-0.1828125,0.0121875
0.127,-0.1828125,0.0125
0.128,-0.1825,0.0128125
0.129,-0.1821875,0.0128125
0.13,-0.181875,0.013125
0.131,-0.181875,0.0134375
0.132,-0.1815625,0.0134375
0.133,-0.18125,0.01375
0.134,-0.1809375,0.01375
0.135,-0.1803125,0.01375
0.136,-0.18,0.01375
0.137,-0.179375,0.01375
0.138,-0.17875,0.01375
0.139,-0.1784375,0.0140625
0.14,-0.178125,0.0140625
0.141,-0.1775,0.0140625
0.142,-0.1771875,0.014375
0.143,-0.176875,0.0146875
0.144,-0.1765625,0.0146875
0.145,-0.17625,0.015
0.146,-0.1759375,0.0153125
0.147,-0.1759375,0.0153125
0.148,-0.1759375,0.015625
0.149,-0.175625,0.015625
0.15,-0.175625,0.015625
0.151,-0.1759375,0.015625
0.152,-0.1759375,0.015625
0.153,-0.1759375,0.015625
0.154,-0.1759375,0.015625
0.155,-0.17625,0.015625
0.156,-0.17625,0.015625
0.157,-0.1765625,0.0153125
0.158,-0.176875,0.0153125
0.159,-0.176875,0.0153125
0.16,-0.1775,0.015625
0.161,-0.1778125,0.015625
0.162,-0.178125,0.015625
0.163,-0.17875,0.0159375
0.164,-0.1790625,0.0159375
0.165,-0.18,0.01625
0.166,-0.180625,0.0165625
0.167,-0.1809375,0.016875
0.168,-0.181875,0.016875
0.169,-0.1828125,0.016875
0.17,-0.183125,0.0171875
0.171,-0.1840625,0.0171875
0.172,-0.1846875,0.0171875
0.173,-0.185,0.0171875
0.174,-0.1859375,0.0171875
0.175,-0.18625,0.0171875
0.176,-0.1865625,0.0175
0.177,-0.1871875,0.0175
0.178,-0.1871875,0.0175
0.179,-0.1878125,0.0175
0.18,-0.188125,0.0178125
0.181,-0.188125,0.018125
0.182,-0.1884375,0.018125
0.183,-0.18875,0.0184375
0.184,-0.1890625,0.01875
0.185,-0.1890625,0.0190625
0.186,-0.189375,0.019375
0.187,-0.19,0.019375
0.188,-0.19,0.02
0.189,-0.190625,0.02
0.19,-0.190625,0.02
0.191,-0.19125,0.0203125
0.192,-0.1915625,0.0203125
0.193,-0.191875,0.0203125
0.194,-0.1921875,0.0203125
0.195,-0.1925,0.0203125
0.196,-0.1928125,0.020625
0.197,-0.1934375,0.020625
0.198,-0.19375,0.020625
0.199,-0.19375,0.020625
0.2,-0.1940625,0.020625
0.201,-0.194375,0.0209375
0.202,-0.1946875,0.0209375
0.203,-0.195,0.02125
0.204,-0.195,0.0215625
0.205,-0.195625,0.0215625
0.206,-0.195625,0.021875
0.207,-0.1959375,0.0221875
0.208,-0.19625,0.0225
0.209,-0.19625,0.0225
0.21,-0.1965625,0.0225
0.211,-0.1965625,0.0225
0.212,-0.1965625,0.0228125
0.213,-0.19625,0.0225
0.214,-0.19625,0.0225
0.215,-0.19625,0.0225
0.216,-0.195625,0.0225
0.217,-0.1953125,0.0228125
0.218,-0.195,0.0228125
0.219,-0.1940625,0.0228125
0.22,-0.1934375,0.0228125
0.221,-0.193125,0.023125
0.222,-0.1921875,0.023125
0.223,-0.19125,0.023125
0.224,-0.1903125,0.02375
0.225,-0.1896875,0.02375
0.226,-0.1884375,0.0240625
0.227,-0.1875,0.024375
0.228,-0.1865625,0.0246875
0.229,-0.185625,0.0246875
0.23,-0.184375,0.0246875
0.231,-0.183125,0.025
0.232,-0.1821875,0.025
0.233,-0.1809375,0.0253125
0.234,-0.1796875,0.0253125
0.235,-0.1784375,0.0253125
0.236,-0.1771875,0.0253125
0.237,-0.1759375,0.0253125
0.238,-0.1746875,0.025625
0.239,-0.17375,0.025625
0.24,-0.1725,0.0259375
0.241,-0.17125,0.02625
0.242,-0.1703125,0.02625
0.243,-0.169375,0.026875
0.244,-0.1684375,0.026875
0.245,-0.1678125,0.0271875
0.246,-0.166875,0.0278125
0.247,-0.1665625,0.0278125
0.248,-0.1659375,0.0284375
0.249,-0.165,0.02875
0.25,-0.1646875,0.02875
0.251,-0.1640625,0.029375
0.252,-0.16375,0.029375
0.253,-0.163125,0.0296875
0.254,-0.1628125,0.03
0.255,-0.1625,0.0303125
0.256,-0.161875,0.0303125
0.257,-0.1615625,0.030625
0.258,-0.16125,0.0309375
0.259,-0.1609375,0.03125
0.26,-0.1603125,0.0315625
0.261,-0.1603125,0.031875
0.262,-0.16,0.0321875
0.263,-0.1596875,0.0328125
0.264,-0.1596875,0.033125
0.265,-0.159375,0.0334375
0.266,-0.159375,0.0340625
0.267,-0.159375,0.034375
0.268,-0.1590625,0.0346875
0.269,-0.1590625,0.0353125
0.27,-0.1590625,0.0353125
0.271,-0.15875,0.0359375
0.272,-0.15875,0.0359375
0.273,-0.1584375,0.03625
0.274,-0.158125,0.0365625
0.275,-0.158125,0.0365625
0.276,-0.1575,0.0365625
0.277,-0.1571875,0.036875
0.278,-0.156875,0.036875
0.279,-0.1565625,0.0371875
0.28,-0.1559375,0.0375
0.281,-0.155625,0.0375
0.282,-0.1553125,0.038125
0.283,-0.155,0.038125
0.284,-0.1546875,0.0384375
0.285,-0.154375,0.03875
0.286,-0.1540625,0.0390625
0.287,-0.15375,0.039375
0.288,-0.15375,0.039375
0.289,-0.15375,0.039375
0.29,-0.1534375,0.0396875
0.291,-0.1534375,0.0396875
0.292,-0.153125,0.0396875
0.293,-0.153125,0.0396875
0.294,-0.153125,0.039375
0.295,-0.1528125,0.039375
0.296,-0.1528125,0.039375
0.297,-0.1528125,0.0390625
0.298,-0.1525,0.0390625
0.299,-0.1525,0.0390625
0.3,-0.1525,0.0390625
0.301,-0.1525,0.0390625
0.302,-0.1525,0.0390625
0.303,-0.1525,0.0390625
0.304,-0.1525,0.039375
0.305,-0.1525,0.039375
0.306,-0.1525,0.039375
0.307,-0.1525,0.039375
0.308,-0.1528125,0.039375
0.309,-0.1528125,0.039375
0.31,-0.1528125,0.0390625
0.311,-0.153125,0.0390625
0.312,-0.1528125,0.0390625
0.313,-0.1528125,0.03875
0.314,-0.1528125,0.03875
0.315,-0.1525,0.0384375
0.316,-0.1525,0.038125
0.317,-0.1521875,0.038125
0.318,-0.151875,0.038125
0.319,-0.1515625,0.0378125
0.32,-0.15125,0.0378125
0.321,-0.1509375,0.0378125
0.322,-0.150625,0.0378125
0.323,-0.1503125,0.0378125
0.324,-0.15,0.0378125
0.325,-0.1496875,0.038125
0.326,-0.1496875,0.038125
0.327,-0.149375,0.038125
0.328,-0.1490625,0.038125
0.329,-0.14875,0.038125
0.33,-0.14875,0.038125
0.331,-0.14875,0.038125
0.332,-0.1484375,0.038125
0.333,-0.1484375,0.038125
0.334,-0.148125,0.038125
0.335,-0.1478125,0.0378125
0.336,-0.1478125,0.0378125
0.337,-0.1475,0.0378125
0.338,-0.1475,0.0378125
0.339,-0.1471875,0.0378125
0.34,-0.1471875,0.0378125
0.341,-0.146875,0.0378125
0.342,-0.146875,0.0378125
0.343,-0.146875,0.038125
0.344,-0.146875,0.038125
0.345,-0.146875,0.0384375
0.346,-0.1465625,0.0384375
0.347,-0.1465625,0.0384375
0.348,-0.1465625,0.03875
0.349,-0.1465625,0.03875
0.35,-0.1465625,0.03875
0.351,-0.1465625,0.03875
0.352,-0.1465625,0.03875
0.353,-0.1465625,0.0384375
0.354,-0.14625,0.0384375
0.355,-0.1459375,0.038125
0.356,-0.1459375,0.038125
0.357,-0.145625,0.038125
0.358,-0.1453125,0.0378125
0.359,-0.145,0.0378125
0.36,-0.1446875,0.0378125
0.361,-0.1446875,0.0378125
0.362,-0.1440625,0.0378125
0.363,-0.1440625,0.0378125
0.364,-0.14375,0.0378125
0.365,-0.1434375,0.0378125
0.366,-0.1434375,0.0378125
0.367,-0.143125,0.0375
0.368,-0.143125,0.0375
0.369,-0.143125,0.0375
0.37,-0.1428125,0.0375
0.371,-0.1428125,0.0371875
0.372,-0.1428125,0.036875
0.373,-0.1428125,0.0365625
0.374,-0.1425,0.0365625
0.375,-0.1425,0.03625
0.376,-0.1425,0.0359375
0.377,-0.1421875,0.0359375
0.378,-0.1421875,0.0353125
0.379,-0.1421875,0.0353125
0.38,-0.141875,0.0353125
0.381,-0.141875,0.035
0.382,-0.141875,0.035
0.383,-0.141875,0.035
0.384,-0.141875,0.0346875
0.385,-0.141875,0.0346875
0.386,-0.141875,0.0346875
0.387,-0.141875,0.0346875
0.388,-0.141875,0.0346875
0.389,-0.141875,0.034375
0.39,-0.141875,0.034375
0.391,-0.141875,0.034375
0.392,-0.141875,0.0340625
0.393,-0.141875,0.0340625
0.394,-0.1415625,0.03375
0.395,-0.14125,0.0334375
0.396,-0.1409375,0.0334375
0.397,-0.140625,0.033125
0.398,-0.1403125,0.033125
0.399,-0.14,0.033125
0.4,-0.139375,0.033125
0.401,-0.1390625,0.033125
0.402,-0.13875,0.033125
0.403,-0.1384375,0.033125
0.404,-0.138125,0.033125
0.405,-0.138125,0.0334375
0.406,-0.138125,0.0334375
0.407,-0.138125,0.0334375
0.408,-0.13875,0.03375
0.409,-0.1390625,0.03375
0.41,-0.139375,0.03375
0.411,-0.1403125,0.03375
0.412,-0.14125,0.03375
0.413,-0.1421875,0.03375
0.414,-0.143125,0.03375
0.415,-0.144375,0.0334375
0.416,-0.145625,0.0334375
0.417,-0.146875,0.03375
0.418,-0.148125,0.03375
0.419,-0.1496875,0.03375
0.42,-0.15125,0.03375
0.421,-0.1525,0.0340625
0.422,-0.1540625,0.0340625
0.423,-0.1559375,0.034375
0.424,-0.1575,0.0346875
0.425,-0.15875,0.0346875
0.426,-0.160625,0.0353125
0.427,-0.1621875,0.0353125
0.428,-0.1634375,0.035625
0.429,-0.165,0.0359375
0.43,-0.1665625,0.0359375
0.431,-0.1678125,0.03625
0.432,-0.1690625,0.03625
0.433,-0.17,0.03625
0.434,-0.17125,0.0365625
0.435,-0.171875,0.0365625
0.436,-0.1728125,0.0365625
0.437,-0.173125,0.036875
0.438,-0.17375,0.036875
0.439,-0.17375,0.0371875
0.44,-0.17375,0.0375
0.441,-0.17375,0.0375
0.442,-0.1734375,0.0378125
0.443,-0.173125,0.038125
0.444,-0.1721875,0.038125
0.445,-0.17125,0.03875
0.446,-0.1703125,0.0390625
0.447,-0.1690625,0.0390625
0.448,-0.1675,0.039375
0.449,-0.1659375,0.0396875
0.45,-0.164375,0.0396875
0.451,-0.1628125,0.0396875
0.452,-0.160625,0.0396875
0.453,-0.1590625,0.0396875
0.454,-0.156875,0.0396875
0.455,-0.1546875,0.0396875
0.456,-0.1528125,0.0396875
0.457,-0.150625,0.0396875
0.458,-0.14875,0.0396875
0.459,-0.1465625,0.04
0.46,-0.144375,0.04
0.461,-0.1428125,0.04
0.462,-0.140625,0.04
0.463,-0.1390625,0.04
0.464,-0.136875,0.04
0.465,-0.1353125,0.04
0.466,-0.13375,0.0403125
0.467,-0.131875,0.0403125
0.468,-0.130625,0.04
0.469,-0.12875,0.04
0.47,-0.1275,0.04
0.471,-0.1259375,0.04
0.472,-0.124375,0.0396875
0.473,-0.123125,0.039375
0.474,-0.121875,0.039375
0.475,-0.120625,0.03875
0.476,-0.119375,0.03875
0.477,-0.118125,0.0384375
0.478,-0.1171875,0.0384375
0.479,-0.1159375,0.038125
0.48,-0.1153125,0.0378125
0.481,-0.114375,0.0378125
0.482,-0.1140625,0.0375
0.483,-0.113125,0.0375
0.484,-0.1128125,0.0371875
0.485,-0.1125,0.0371875
0.486,-0.1121875,0.0371875
0.487,-0.111875,0.036875
0.488,-0.111875,0.036875
0.489,-0.111875,0.0365625
0.49,-0.1115625,0.03625
0.491,-0.1115625,0.03625
0.492,-0.111875,0.0359375
0.493,-0.111875,0.035625
0.494,-0.111875,0.0353125
0.495,-0.111875,0.035
0.496,-0.1121875,0.0346875
0.497,-0.1121875,0.034375
0.498,-0.1125,0.0340625
0.499,-0.1128125,0.0340625
0.5,-0.113125,0.03375
0.501,-0.11375,0.0334375
0.502,-0.1140625,0.0334375
0.503,-0.115,0.033125
0.504,-0.115625,0.033125
0.505,-0.1165625,0.033125
0.506,-0.1175,0.0328125
0.507,-0.1184375,0.0328125
0.508,-0.1196875,0.0328125
0.509,-0.1209375,0.0325
0.51,-0.1221875,0.0325
0.511,-0.1234375,0.0321875
0.512,-0.125,0.031875
0.513,-0.12625,0.0315625
0.514,-0.1278125,0.0315625
0.515,-0.129375,0.03125
0.516,-0.130625,0.0309375
0.517,-0.131875,0.0309375
0.518,-0.1334375,0.0309375
0.519,-0.135,0.030625
0.52,-0.13625,0.030625
0.521,-0.1378125,0.030625
0.522,-0.1390625,0.030625
0.523,-0.140625,0.030625
0.524,-0.141875,0.0309375
0.525,-0.143125,0.0309375
0.526,-0.1446875,0.0309375
0.527,-0.1459375,0.0309375
0.528,-0.146875,0.0309375
0.529,-0.148125,0.03125
0.53,-0.149375,0.03125
0.531,-0.1503125,0.03125
0.532,-0.15125,0.03125
0.533,-0.151875,0.03125
0.534,-0.1528125,0.03125
0.535,-0.153125,0.03125
0.536,-0.1534375,0.03125
0.537,-0.15375,0.03125
0.538,-0.1540625,0.03125
0.539,-0.1540625,0.0315625
0.54,-0.15375,0.0315625
0.541,-0.15375,0.0315625
0.542,-0.153125,0.031875
0.543,-0.1528125,0.0321875
0.544,-0.1521875,0.0321875
0.545,-0.1515625,0.0325
0.546,-0.150625,0.0328125
0.547,-0.15,0.033125
0.548,-0.1490625,0.033125
0.549,-0.148125,0.033125
0.55,-0.1471875,0.0334375
0.551,-0.1459375,0.0334375
0.552,-0.1446875,0.03375
0.553,-0.1434375,0.03375
0.554,-0.1421875,0.03375
0.555,-0.1409375,0.03375
0.556,-0.1396875,0.03375
0.557,-0.138125,0.03375
0.558,-0.136875,0.03375
0.559,-0.1353125,0.03375
0.56,-0.1340625,0.0340625
0.561,-0.1328125,0.0340625
0.562,-0.1315625,0.0340625
0.563,-0.1303125,0.034375
0.564,-0.1290625,0.034375
0.565,-0.1278125,0.0346875
0.566,-0.1265625,0.0346875
0.567,-0.1253125,0.0346875
0.568,-0.1240625,0.035
0.569,-0.123125,0.035
0.57,-0.121875,0.035
0.571,-0.120625,0.035
0.572,-0.1196875,0.035
0.573,-0.1184375,0.035
0.574,-0.1175,0.035
0.575,-0.1165625,0.035
0.576,-0.1153125,0.035
0.577,-0.114375,0.035
0.578,-0.1134375,0.035
0.579,-0.1125,0.0353125
0.58,-0.111875,0.0353125
0.581,-0.1109375,0.0353125
0.582,-0.110625,0.035625
0.583,-0.11,0.035625
0.584,-0.1090625,0.0359375
0.585,-0.10875,0.03625
0.586,-0.108125,0.03625
0.587,-0.1078125,0.03625
0.588,-0.1075,0.0365625
0.589,-0.1071875,0.0365625
0.59,-0.106875,0.0365625
0.591,-0.1065625,0.0365625
0.592,-0.10625,0.0365625
0.593,-0.1059375,0.0365625
0.594,-0.105625,0.0365625
0.595,-0.1053125,0.0365625
0.596,-0.1053125,0.0365625
0.597,-0.1053125,0.0365625
0.598,-0.105,0.0365625
0.599,-0.105,0.0365625
0.6,-0.105,0.0365625
0.601,-0.105,0.0365625
0.602,-0.105,0.0365625
0.603,-0.105,0.036875
0.604,-0.1053125,0.036875
0.605,-0.105625,0.036875
0.606,-0.105625,0.0371875
0.607,-0.1059375,0.0371875
0.608,-0.1065625,0.0371875
0.609,-0.1065625,0.0371875
0.61,-0.1071875,0.0371875
0.611,-0.1071875,0.0371875
0.612,-0.1078125,0.0371875
0.613,-0.108125,0.036875
0.614,-0.1084375,0.036875
0.615,-0.10875,0.036875
0.616,-0.1090625,0.0365625
0.617,-0.109375,0.0365625
0.618,-0.1096875,0.0365625
0.619,-0.11,0.0365625
0.62,-0.1103125,0.0365625
0.621,-0.110625,0.0365625
0.622,-0.1109375,0.0365625
0.623,-0.11125,0.036875
0.624,-0.1115625,0.036875
0.625,-0.111875,0.036875
0.626,-0.111875,0.036875
0.627,-0.1121875,0.036875
0.628,-0.1125,0.036875
0.629,-0.1125,0.036875
0.63,-0.1125,0.036875
0.631,-0.1125,0.036875
0.632,-0.1125,0.036875
0.633,-0.1121875,0.036875
0.634,-0.1121875,0.0365625
0.635,-0.1121875,0.0365625
0.636,-0.111875,0.0365625
0.637,-0.1115625,0.0365625
0.638,-0.1115625,0.0365625
0.639,-0.11125,0.0365625
0.64,-0.1109375,0.0365625
0.641,-0.110625,0.0365625
0.642,-0.110625,0.0365625
0.643,-0.110625,0.0365625
0.644,-0.1103125,0.0365625
0.645,-0.1103125,0.0365625
0.646,-0.110625,0.036875
0.647,-0.110625,0.036875
0.648,-0.110625,0.036875
0.649,-0.110625,0.036875
0.65,-0.1109375,0.036875
0.651,-0.1109375,0.036875
0.652,-0.11125,0.0365625
0.653,-0.1115625,0.0365625
0.654,-0.1115625,0.0365625
0.655,-0.111875,0.0365625
0.656,-0.1121875,0.0365625
0.657,-0.1125,0.0365625
0.658,-0.1128125,0.0365625
0.659,-0.113125,0.0365625
0.66,-0.11375,0.0365625
0.661,-0.114375,0.0365625
0.662,-0.1146875,0.036875
0.663,-0.115,0.036875
0.664,-0.1159375,0.036875
0.665,-0.1165625,0.0371875
0.666,-0.1175,0.0375
0.667,-0.1178125,0.0375
0.668,-0.11875,0.0375
0.669,-0.1196875,0.0378125
0.67,-0.12,0.0378125
0.671,-0.1209375,0.0378125
0.672,-0.121875,0.038125
0.673,-0.1221875,0.038125
0.674,-0.123125,0.038125
0.675,-0.1234375,0.038125
0.676,-0.124375,0.038125
0.677,-0.1246875,0.038125
0.678,-0.125625,0.038125
0.679,-0.1259375,0.038125
0.68,-0.12625,0.0384375
0.681,-0.126875,0.0384375
0.682,-0.1275,0.03875
0.683,-0.1278125,0.03875
0.684,-0.1284375,0.03875
0.685,-0.12875,0.0390625
0.686,-0.1290625,0.0390625
0.687,-0.1296875,0.0390625
0.688,-0.13,0.0390625
0.689,-0.1303125,0.0390625
0.69,-0.1309375,0.0390625
0.691,-0.13125,0.0390625
0.692,-0.1315625,0.03875
0.693,-0.131875,0.03875
0.694,-0.1325,0.0384375
0.695,-0.1325,0.0384375
0.696,-0.133125,0.038125
0.697,-0.133125,0.038125
0.698,-0.1334375,0.0378125
0.699,-0.1340625,0.0378125
0.7,-0.1340625,0.0375
0.701,-0.1346875,0.0375
0.702,-0.135,0.0375
0.703,-0.135,0.0375
0.704,-0.1353125,0.0375
0.705,-0.135625,0.0371875
0.706,-0.135625,0.0371875
0.707,-0.135625,0.0371875
0.708,-0.1359375,0.0371875
0.709,-0.1359375,0.036875
0.71,-0.1359375,0.036875
0.711,-0.1359375,0.036875
0.712,-0.135625,0.0365625
0.713,-0.135625,0.03625
0.714,-0.135625,0.0359375
0.715,-0.1353125,0.0359375
0.716,-0.135,0.0359375
0.717,-0.135,0.035625
0.718,-0.134375,0.035625
0.719,-0.134375,0.035625
0.72,-0.13375,0.0353125
0.721,-0.13375,0.035625
0.722,-0.133125,0.035625
0.723,-0.1328125,0.035625
0.724,-0.1325,0.035625
0.725,-0.1321875,0.035625
0.726,-0.1315625,0.035625
0.727,-0.13125,0.0359375
0.728,-0.1309375,0.0359375
0.729,-0.13,0.035625
0.73,-0.129375,0.035625
0.731,-0.1290625,0.035625
0.732,-0.128125,0.035625
0.733,-0.1278125,0.035625
0.734,-0.126875,0.035625
0.735,-0.1265625,0.0353125
0.736,-0.125625,0.0353125
0.737,-0.125,0.0353125
0.738,-0.1240625,0.035
0.739,-0.12375,0.035
0.74,-0.1228125,0.035
0.741,-0.1225,0.035
0.742,-0.121875,0.035
0.743,-0.1209375,0.0353125
0.744,-0.120625,0.0353125
0.745,-0.1203125,0.035
0.746,-0.1196875,0.035
0.747,-0.119375,0.035
0.748,-0.11875,0.035
0.749,-0.1184375,0.035
0.75,-0.118125,0.0346875
0.751,-0.1178125,0.0346875
0.752,-0.1171875,0.0346875
0.753,-0.1171875,0.034375
0.754,-0.1165625,0.0340625
0.755,-0.11625,0.03375
0.756,-0.11625,0.03375
0.757,-0.1159375,0.03375
0.758,-0.115625,0.0334375
0.759,-0.1153125,0.0334375
0.76,-0.1153125,0.0334375
0.761,-0.115,0.0334375
0.762,-0.1146875,0.0334375
0.763,-0.1146875,0.0334375
0.764,-0.114375,0.0334375
0.765,-0.114375,0.0334375
0.766,-0.114375,0.0334375
0.767,-0.1140625,0.0334375
0.768,-0.1140625,0.0334375
0.769,-0.1140625,0.03375
0.77,-0.11375,0.0334375
0.771,-0.11375,0.0334375
0.772,-0.11375,0.0334375
0.773,-0.1134375,0.0334375
0.774,-0.1134375,0.03375
0.775,-0.1134375,0.03375
0.776,-0.113125,0.03375
0.777,-0.113125,0.03375
0.778,-0.1128125,0.03375
0.779,-0.1125,0.03375
0.78,-0.1125,0.0340625
0.781,-0.1121875,0.0340625
0.782,-0.1121875,0.034375
0.783,-0.1121875,0.0346875
0.784,-0.111875,0.0346875
0.785,-0.111875,0.035
0.786,-0.111875,0.0353125
0.787,-0.111875,0.035625
0.788,-0.1115625,0.035625
0.789,-0.1115625,0.035625
0.79,-0.1115625,0.0359375
0.791,-0.1115625,0.0359375
0.792,-0.1115625,0.0359375
0.793,-0.1115625,0.0359375
0.794,-0.1115625,0.03625
0.795,-0.1115625,0.03625
0.796,-0.1115625,0.03625
0.797,-0.1115625,0.03625
0.798,-0.1115625,0.03625
0.799,-0.1115625,0.0365625
0.8,-0.1115625,0.0365625
0.801,-0.1115625,0.036875
0.802,-0.111875,0.036875
0.803,-0.111875,0.0371875
0.804,-0.111875,0.0375
0.805,-0.1121875,0.0375
0.806,-0.1121875,0.0375
0.807,-0.1121875,0.0378125
0.808,-0.1125,0.0378125
0.809,-0.1125,0.038125
0.81,-0.1125,0.038125
0.811,-0.1125,0.038125
0.812,-0.1125,0.038125
0.813,-0.1125,0.038125
0.814,-0.1125,0.038125
0.815,-0.1125,0.038125
0.816,-0.1125,0.038125
0.817,-0.1125,0.038125
0.818,-0.1125,0.038125
0.819,-0.1125,0.038125
0.82,-0.1125,0.038125
0.821,-0.1125,0.0384375
0.822,-0.1128125,0.0384375
0.823,-0.1128125,0.03875
0.824,-0.1128125,0.03875
0.825,-0.113125,0.0390625
0.826,-0.1134375,0.0390625
0.827,-0.1134375,0.039375
0.828,-0.1140625,0.039375
0.829,-0.1140625,0.039375
0.83,-0.1146875,0.0396875
0.831,-0.115,0.0396875
0.832,-0.1153125,0.0396875
0.833,-0.115625,0.0396875
0.834,-0.1159375,0.04
0.835,-0.11625,0.04
0.836,-0.116875,0.04
0.837,-0.1171875,0.0403125
0.838,-0.1175,0.040625
0.839,-0.1178125,0.040625
0.84,-0.118125,0.0409375
0.841,-0.1184375,0.04125
0.842,-0.11875,0.0415625
0.843,-0.1190625,0.041875
0.844,-0.1190625,0.0421875
0.845,-0.1196875,0.0425
0.846,-0.1196875,0.0428125
0.847,-0.1196875,0.043125
0.848,-0.12,0.04375
0.849,-0.12,0.04375
0.85,-0.1196875,0.0440625
0.851,-0.1196875,0.044375
0.852,-0.1196875,0.044375
0.853,-0.119375,0.045
0.854,-0.1190625,0.045
0.855,-0.1184375,0.045
0.856,-0.118125,0.045625
0.857,-0.1178125,0.045625
0.858,-0.1171875,0.0459375
0.859,-0.11625,0.04625
0.86,-0.115625,0.04625
0.861,-0.1146875,0.0465625
0.862,-0.1140625,0.046875
0.863,-0.1128125,0.046875
0.864,-0.1121875,0.0475
0.865,-0.1109375,0.0475
0.866,-0.1103125,0.0475
0.867,-0.1090625,0.0478125
0.868,-0.108125,0.0478125
0.869,-0.1071875,0.0478125
0.87,-0.10625,0.0478125
0.871,-0.105,0.0478125
0.872,-0.104375,0.0478125
0.873,-0.103125,0.0478125
0.874,-0.1025,0.0475
0.875,-0.1015625,0.0475
0.876,-0.100625,0.0475
0.877,-0.1,0.0471875
0.878,-0.099375,0.0471875
0.879,-0.0984375,0.0471875
0.88,-0.098125,0.046875
0.881,-0.0975,0.046875
0.882,-0.0971875,0.046875
0.883,-0.096875,0.046875
0.884,-0.0965625,0.046875
0.885,-0.09625,0.046875
0.886,-0.0959375,0.0465625
0.887,-0.0959375,0.0465625
0.888,-0.0959375,0.0465625
0.889,-0.0959375,0.04625
0.89,-0.0959375,0.04625
0.891,-0.0959375,0.04625
0.892,-0.0959375,0.0459375
0.893,-0.09625,0.045625
0.894,-0.0965625,0.045625
0.895,-0.096875,0.0453125
0.896,-0.0971875,0.0453125
0.897,-0.0975,0.0453125
0.898,-0.0978125,0.045
0.899,-0.0984375,0.045
0.9,-0.09875,0.045
0.901,-0.0996875,0.045
0.902,-0.1,0.045
0.903,-0.1009375,0.045
0.904,-0.101875,0.0453125
0.905,-0.1025,0.0453125
0.906,-0.10375,0.0453125
0.907,-0.1046875,0.0453125
0.908,-0.105625,0.0453125
0.909,-0.106875,0.0453125
0.91,-0.108125,0.0453125
0.911,-0.1096875,0.045
0.912,-0.1109375,0.045
0.913,-0.1125,0.045
0.914,-0.1140625,0.045
0.915,-0.115625,0.045
0.916,-0.1175,0.045
0.917,-0.1190625,0.045
0.918,-0.1209375,0.045
0.919,-0.1225,0.045
0.92,-0.1240625,0.045
0.921,-0.12625,0.0453125
0.922,-0.1278125,0.0453125
0.923,-0.129375,0.045625
0.924,-0.1315625,0.045625
0.925,-0.1328125,0.0459375
0.926,-0.1346875,0.0459375
0.927,-0.13625,0.04625
0.928,-0.1378125,0.04625
0.929,-0.139375,0.04625
0.93,-0.140625,0.0465625
0.931,-0.141875,0.0465625
0.932,-0.143125,0.0465625
0.933,-0.144375,0.0465625
0.934,-0.1453125,0.046875
0.935,-0.14625,0.046875
0.936,-0.146875,0.046875
0.937,-0.1475,0.046875
0.938,-0.1478125,0.0471875
0.939,-0.148125,0.0471875
0.94,-0.1484375,0.0475
0.941,-0.1484375,0.0475
0.942,-0.148125,0.0478125
0.943,-0.1478125,0.048125
0.944,-0.1475,0.048125
0.945,-0.146875,0.0484375
0.946,-0.1459375,0.0484375
0.947,-0.1453125,0.0484375
0.948,-0.1440625,0.04875
0.949,-0.1428125,0.04875
0.95,-0.1415625,0.04875
0.951,-0.1403125,0.04875
0.952,-0.1390625,0.04875
0.953,-0.1371875,0.04875
0.954,-0.135625,0.04875
0.955,-0.134375,0.04875
0.956,-0.1325,0.04875
0.957,-0.1309375,0.04875
0.958,-0.129375,0.04875
0.959,-0.1278125,0.04875
0.96,-0.12625,0.04875
0.961,-0.125,0.04875
0.962,-0.1234375,0.04875
0.963,-0.1221875,0.04875
0.964,-0.1209375,0.0490625
0.965,-0.12,0.0490625
0.966,-0.11875,0.0490625
0.967,-0.1178125,0.0490625
0.968,-0.116875,0.0490625
0.969,-0.11625,0.0490625
0.97,-0.1153125,0.0490625
0.971,-0.115,0.0490625
0.972,-0.1140625,0.04875
0.973,-0.11375,0.04875
0.974,-0.1134375,0.04875
0.975,-0.1128125,0.04875
0.976,-0.1128125,0.04875
0.977,-0.1125,0.04875
0.978,-0.1121875,0.04875
0.979,-0.1121875,0.04875
0.98,-0.1121875,0.04875
0.981,-0.1121875,0.04875
0.982,-0.1125,0.04875
0.983,-0.1128125,0.04875
0.984,-0.1128125,0.04875
0.985,-0.113125,0.0490625
0.986,-0.1134375,0.0490625
0.987,-0.11375,0.0490625
0.988,-0.114375,0.0490625
0.989,-0.1146875,0.0490625
0.99,-0.115,0.04875
0.991,-0.1153125,0.04875
0.992,-0.115625,0.04875
0.993,-0.1159375,0.04875
0.994,-0.11625,0.04875
0.995,-0.1165625,0.0484375
0.996,-0.116875,0.0484375
0.997,-0.116875,0.0484375
0.998,-0.1171875,0.0484375
0.999,-0.1175,0.0484375
1,-0.1175,0.0484375
1.001,-0.1178125,0.0484375
1.002,-0.118125,0.0484375
1.003,-0.1184375,0.0484375
1.004,-0.11875,0.0484375
1.005,-0.11875,0.0484375
1.006,-0.119375,0.0484375
1.007,-0.119375,0.0484375
1.008,-0.1196875,0.0484375
1.009,-0.1203125,0.0484375
1.01,-0.1203125,0.0484375
1.011,-0.1209375,0.048125
1.012,-0.12125,0.048125
1.013,-0.1215625,0.048125
1.014,-0.121875,0.0478125
1.015,-0.1221875,0.0478125
1.016,-0.1225,0.0478125
1.017,-0.1225,0.0478125
1.018,-0.123125,0.0478125
1.019,-0.123125,0.0478125
1.02,-0.123125,0.0478125
1.021,-0.1234375,0.0478125
1.022,-0.12375,0.0478125
1.023,-0.12375,0.0478125
1.024,-0.12375,0.0478125
1.025,-0.1240625,0.048125
1.026,-0.1240625,0.048125
1.027,-0.1240625,0.048125
1.028,-0.1240625,0.048125
1.029,-0.12375,0.048125
1.03,-0.12375,0.048125
1.031,-0.12375,0.048125
1.032,-0.1234375,0.048125
1.033,-0.123125,0.048125
1.034,-0.1228125,0.0478125
1.035,-0.1221875,0.0478125
1.036,-0.121875,0.0478125
1.037,-0.1215625,0.0478125
1.038,-0.120625,0.048125
1.039,-0.1203125,0.048125
1.04,-0.119375,0.048125
1.041,-0.11875,0.048125
1.042,-0.1178125,0.048125
1.043,-0.1171875,0.0484375
1.044,-0.11625,0.0484375
1.045,-0.115625,0.0484375
1.046,-0.1146875,0.04875
1.047,-0.11375,0.04875
1.048,-0.1128125,0.04875
1.049,-0.1121875,0.04875
1.05,-0.11125,0.04875
1.051,-0.1103125,0.04875
1.052,-0.1096875,0.04875
1.053,-0.10875,0.04875
1.054,-0.108125,0.04875
1.055,-0.1071875,0.0484375
1.056,-0.1065625,0.0484375
1.057,-0.1059375,0.04875
1.058,-0.1053125,0.04875
1.059,-0.1046875,0.04875
1.06,-0.1040625,0.04875
1.061,-0.10375,0.04875
1.062,-0.103125,0.0490625
1.063,-0.1028125,0.0490625
1.064,-0.1021875,0.0490625
1.065,-0.101875,0.049375
1.066,-0.1015625,0.049375
1.067,-0.10125,0.049375
1.068,-0.1009375,0.049375
1.069,-0.1009375,0.0496875
1.07,-0.1003125,0.0496875
1.071,-0.1003125,0.049375
1.072,-0.1,0.049375
1.073,-0.1,0.049375
1.074,-0.1,0.049375
1.075,-0.0996875,0.049375
1.076,-0.0996875,0.049375
1.077,-0.0996875,0.049375
1.078,-0.0996875,0.049375
1.079,-0.0996875,0.049375
1.08,-0.0996875,0.049375
1.081,-0.0996875,0.049375
1.082,-0.1,0.0496875
1.083,-0.1,0.0496875
1.084,-0.1,0.0496875
1.085,-0.1003125,0.0496875
1.086,-0.1003125,0.0496875
1.087,-0.100625,0.0496875
1.088,-0.1009375,0.0496875
1.089,-0.1009375,0.0496875
1.09,-0.10125,0.0496875
1.091,-0.10125,0.0496875
1.092,-0.1015625,0.049375
1.093,-0.1015625,0.049375
1.094,-0.101875,0.049375
1.095,-0.101875,0.0490625
1.096,-0.101875,0.0490625
1.097,-0.1021875,0.0490625
1.098,-0.1021875,0.0490625
1.099,-0.1025,0.0490625
1.1,-0.1025,0.0490625
1.101,-0.1028125,0.0490625
1.102,-0.1028125,0.0490625
1.103,-0.103125,0.0490625
1.104,-0.1034375,0.0490625
1.105,-0.1034375,0.049375
1.106,-0.10375,0.049375
1.107,-0.1040625,0.0490625
1.108,-0.104375,0.0490625
1.109,-0.1046875,0.0490625
1.11,-0.1053125,0.0490625
1.111,-0.1053125,0.0490625
1.112,-0.1059375,0.0490625
1.113,-0.10625,0.04875
1.114,-0.1065625,0.04875
1.115,-0.1071875,0.04875
1.116,-0.1075,0.0484375
1.117,-0.1078125,0.0484375
1.118,-0.1084375,0.0484375
1.119,-0.10875,0.048125
1.12,-0.1090625,0.048125
1.121,-0.109375,0.048125
1.122,-0.11,0.048125
1.123,-0.1103125,0.048125
1.124,-0.110625,0.048125
1.125,-0.1109375,0.048125
1.126,-0.11125,0.048125
1.127,-0.11125,0.048125
1.128,-0.1115625,0.0478125
1.129,-0.111875,0.0478125
1.13,-0.111875,0.0478125
1.131,-0.111875,0.0475
1.132,-0.111875,0.0475
1.133,-0.111875,0.0475
1.134,-0.111875,0.0471875
1.135,-0.111875,0.0471875
1.136,-0.1115625,0.0471875
1.137,-0.11125,0.0471875
1.138,-0.11125,0.0471875
1.139,-0.1109375,0.0471875
1.14,-0.1103125,0.0471875
1.141,-0.1103125,0.0475
1.142,-0.1096875,0.0475
1.143,-0.1096875,0.0475
1.144,-0.1090625,0.0478125
1.145,-0.1090625,0.0478125
1.146,-0.1084375,0.0478125
1.147,-0.108125,0.048125
1.148,-0.108125,0.048125
1.149,-0.1078125,0.0484375
1.15,-0.1075,0.0484375
1.151,-0.1071875,0.0484375
1.152,-0.106875,0.04875
1.153,-0.106875,0.04875
1.154,-0.106875,0.04875
1.155,-0.106875,0.0490625
1.156,-0.1065625,0.0490625
1.157,-0.106875,0.0490625
1.158,-0.106875,0.049375
1.159,-0.106875,0.0496875
1.16,-0.106875,0.05
1.161,-0.1071875,0.05
1.162,-0.1071875,0.0503125
1.163,-0.1075,0.050625
1.164,-0.1075,0.050625
1.165,-0.1078125,0.0509375
1.166,-0.1078125,0.05125
1.167,-0.1078125,0.05125
1.168,-0.108125,0.0515625
1.169,-0.108125,0.0515625
1.17,-0.1084375,0.0515625
1.171,-0.1084375,0.051875
1.172,-0.1084375,0.051875
1.173,-0.108125,0.051875
1.174,-0.108125,0.051875
1.175,-0.108125,0.0521875
1.176,-0.1078125,0.0521875
1.177,-0.1078125,0.0521875
1.178,-0.1075,0.0525
1.179,-0.106875,0.0525
1.18,-0.1065625,0.0525
1.181,-0.10625,0.0528125
1.182,-0.105625,0.0528125
1.183,-0.105,0.053125
1.184,-0.1046875,0.053125
1.185,-0.104375,0.053125
1.186,-0.1034375,0.0534375
1.187,-0.103125,0.0534375
1.188,-0.1021875,0.05375
1.189,-0.101875,0.05375
1.19,-0.10125,0.05375
1.191,-0.100625,0.05375
1.192,-0.1003125,0.05375
1.193,-0.0996875,0.05375
1.194,-0.099375,0.05375
1.195,-0.09875,0.05375
1.196,-0.0984375,0.05375
1.197,-0.098125,0.05375
1.198,-0.0975,0.05375
1.199,-0.0975,0.05375
1.2,-0.096875,0.0540625
1.201,-0.096875,0.0540625
1.202,-0.0965625,0.0540625
1.203,-0.09625,0.0540625
1.204,-0.09625,0.054375
1.205,-0.0959375,0.054375
1.206,-0.0959375,0.054375
1.207,-0.0959375,0.054375
1.208,-0.0959375,0.054375
1.209,-0.0959375,0.054375
1.21,-0.0959375,0.054375
1.211,-0.0959375,0.0540625
1.212,-0.0959375,0.0540625
1.213,-0.0959375,0.0540625
1.214,-0.0959375,0.05375
1.215,-0.0959375,0.05375
1.216,-0.0959375,0.05375
1.217,-0.0959375,0.0534375
1.218,-0.0959375,0.0534375
1.219,-0.0959375,0.0534375
1.22,-0.0959375,0.0534375
1.221,-0.0959375,0.0534375
1.222,-0.0959375,0.0534375
1.223,-0.095625,0.0534375
1.224,-0.095625,0.053125
1.225,-0.095625,0.053125
1.226,-0.0953125,0.053125
1.227,-0.0953125,0.053125
1.228,-0.095,0.053125
1.229,-0.0946875,0.0528125
1.23,-0.094375,0.0528125
1.231,-0.094375,0.0525
1.232,-0.09375,0.0525
1.233,-0.0934375,0.0525
1.234,-0.0934375,0.0521875
1.235,-0.0928125,0.0521875
1.236,-0.0928125,0.0521875
1.237,-0.0921875,0.051875
1.238,-0.091875,0.051875
1.239,-0.091875,0.051875
1.24,-0.0915625,0.051875
1.241,-0.09125,0.051875
1.242,-0.0909375,0.051875
1.243,-0.0909375,0.051875
1.244,-0.090625,0.051875
1.245,-0.0903125,0.051875
1.246,-0.09,0.051875
1.247,-0.09,0.0515625
1.248,-0.0896875,0.0515625
1.249,-0.089375,0.0515625
1.25,-0.089375,0.0515625
1.251,-0.089375,0.0515625
1.252,-0.0890625,0.05125
1.253,-0.0890625,0.05125
1.254,-0.0890625,0.05125
1.255,-0.0890625,0.0509375
1.256,-0.0890625,0.0509375
1.257,-0.0890625,0.0509375
1.258,-0.0890625,0.050625
1.259,-0.0890625,0.050625
1.26,-0.0890625,0.050625
1.261,-0.0890625,0.050625
1.262,-0.0890625,0.050625
1.263,-0.089375,0.050625
1.264,-0.089375,0.050625
1.265,-0.089375,0.050625
1.266,-0.089375,0.050625
1.267,-0.089375,0.050625
1.268,-0.089375,0.050625
1.269,-0.089375,0.0503125
1.27,-0.0890625,0.0503125
1.271,-0.0890625,0.0503125
1.272,-0.0890625,0.05
1.273,-0.08875,0.05
1.274,-0.08875,0.05
1.275,-0.08875,0.0496875
1.276,-0.0884375,0.0496875
1.277,-0.088125,0.0496875
1.278,-0.0878125,0.0496875
1.279,-0.0878125,0.0496875
1.28,-0.0871875,0.0496875
1.281,-0.0871875,0.0496875
1.282,-0.086875,0.0496875
1.283,-0.08625,0.0496875
1.284,-0.08625,0.0496875
1.285,-0.085625,0.0496875
1.286,-0.0853125,0.0496875
1.287,-0.0846875,0.0496875
1.288,-0.084375,0.0496875
1.289,-0.0840625,0.0496875
1.29,-0.0834375,0.0496875
1.291,-0.0828125,0.0496875
1.292,-0.0825,0.0496875
1.293,-0.0815625,0.0496875
1.294,-0.08125,0.0496875
1.295,-0.080625,0.0496875
1.296,-0.0803125,0.049375
1.297,-0.0796875,0.049375
1.298,-0.079375,0.049375
1.299,-0.07875,0.049375
1.3,-0.0784375,0.049375
1.301,-0.078125,0.049375
1.302,-0.0778125,0.0496875
1.303,-0.0771875,0.0496875
1.304,-0.0771875,0.049375
1.305,-0.0765625,0.049375
1.306,-0.0765625,0.049375
1.307,-0.0759375,0.049375
1.308,-0.0759375,0.049375
1.309,-0.075625,0.049375
1.31,-0.0753125,0.049375
1.311,-0.0753125,0.049375
1.312,-0.075,0.0490625
1.313,-0.0746875,0.0490625
1.314,-0.074375,0.0490625
1.315,-0.074375,0.04875
1.316,-0.074375,0.04875
1.317,-0.074375,0.04875
1.318,-0.074375,0.0484375
1.319,-0.074375,0.0484375
1.32,-0.074375,0.0484375
1.321,-0.074375,0.0484375
1.322,-0.074375,0.0484375
1.323,-0.0746875,0.0484375
1.324,-0.075,0.0484375
1.325,-0.0753125,0.0484375
1.326,-0.0753125,0.048125
1.327,-0.075625,0.048125
1.328,-0.0759375,0.048125
1.329,-0.07625,0.048125
1.33,-0.076875,0.048125
1.331,-0.0771875,0.0478125
1.332,-0.0778125,0.0478125
1.333,-0.078125,0.0478125
1.334,-0.0784375,0.0475
1.335,-0.079375,0.0475
1.336,-0.0796875,0.0475
1.337,-0.0803125,0.0475
1.338,-0.0809375,0.0471875
1.339,-0.081875,0.0471875
1.34,-0.0821875,0.0471875
1.341,-0.083125,0.0471875
1.342,-0.08375,0.0475
1.343,-0.084375,0.0475
1.344,-0.0853125,0.0475
1.345,-0.085625,0.0475
1.346,-0.08625,0.0471875
1.347,-0.086875,0.0471875
1.348,-0.0871875,0.0471875
1.349,-0.0878125,0.0471875
1.35,-0.088125,0.0471875
1.351,-0.08875,0.0471875
1.352,-0.0890625,0.0471875
1.353,-0.089375,0.0471875
1.354,-0.0896875,0.046875
1.355,-0.09,0.046875
1.356,-0.09,0.046875
1.357,-0.0903125,0.046875
1.358,-0.0903125,0.046875
1.359,-0.090625,0.0471875
1.36,-0.090625,0.0471875
1.361,-0.0903125,0.0471875
1.362,-0.0903125,0.0471875
1.363,-0.0903125,0.0471875
1.364,-0.0903125,0.0475
1.365,-0.09,0.0475
1.366,-0.0896875,0.0475
1.367,-0.0896875,0.0478125
1.368,-0.089375,0.0478125
1.369,-0.08875,0.0478125
1.37,-0.08875,0.048125
1.371,-0.088125,0.048125
1.372,-0.088125,0.048125
1.373,-0.0878125,0.048125
1.374,-0.0875,0.0484375
1.375,-0.0871875,0.0484375
1.376,-0.086875,0.0484375
1.377,-0.086875,0.04875
1.378,-0.086875,0.04875
1.379,-0.0865625,0.0490625
1.38,-0.086875,0.0490625
1.381,-0.086875,0.049375
1.382,-0.086875,0.0496875
1.383,-0.0871875,0.0496875
1.384,-0.0875,0.05
1.385,-0.088125,0.0503125
1.386,-0.0884375,0.0503125
1.387,-0.08875,0.050625
1.388,-0.089375,0.050625
1.389,-0.0903125,0.050625
1.39,-0.09125,0.0509375
1.391,-0.0915625,0.0509375
1.392,-0.0925,0.0509375
1.393,-0.0934375,0.05125
1.394,-0.0940625,0.05125
1.395,-0.095,0.05125
1.396,-0.095625,0.05125
1.397,-0.0965625,0.05125
1.398,-0.0975,0.05125
1.399,-0.098125,0.0515625
1.4,-0.0990625,0.0515625
1.401,-0.0996875,0.0515625
1.402,-0.100625,0.051875
1.403,-0.10125,0.051875
1.404,-0.1021875,0.051875
1.405,-0.1028125,0.051875
1.406,-0.10375,0.051875
1.407,-0.1046875,0.0521875
1.408,-0.105625,0.0521875
1.409,-0.10625,0.0521875
1.41,-0.1071875,0.0521875
1.411,-0.1078125,0.051875
1.412,-0.1084375,0.051875
1.413,-0.109375,0.051875
1.414,-0.1103125,0.051875
1.415,-0.110625,0.051875
1.416,-0.1115625,0.051875
1.417,-0.111875,0.051875
1.418,-0.1128125,0.051875
1.419,-0.113125,0.051875
1.42,-0.1134375,0.051875
1.421,-0.114375,0.051875
1.422,-0.1146875,0.0521875
1.423,-0.1153125,0.0521875
1.424,-0.1159375,0.0521875
1.425,-0.11625,0.0521875
1.426,-0.1171875,0.0521875
1.427,-0.1175,0.0521875
1.428,-0.1184375,0.0521875
1.429,-0.1190625,0.0521875
1.43,-0.1196875,0.0521875
1.431,-0.120625,0.0521875
1.432,-0.12125,0.0521875
1.433,-0.1215625,0.0521875
1.434,-0.1225,0.0521875
1.435,-0.1228125,0.0521875
1.436,-0.1234375,0.0521875
1.437,-0.1240625,0.0521875
1.438,-0.124375,0.0521875
1.439,-0.125,0.0521875
1.44,-0.1253125,0.0521875
1.441,-0.125625,0.0521875
1.442,-0.1259375,0.0521875
1.443,-0.12625,0.0521875
1.444,-0.12625,0.0521875
1.445,-0.1265625,0.0521875
1.446,-0.1265625,0.0521875
1.447,-0.1265625,0.0521875
1.448,-0.1265625,0.0521875
1.449,-0.12625,0.051875
1.45,-0.1259375,0.051875
1.451,-0.125625,0.051875
1.452,-0.1253125,0.051875
1.453,-0.1246875,0.0515625
1.454,-0.124375,0.0515625
1.455,-0.1234375,0.0515625
1.456,-0.123125,0.05125
1.457,-0.1225,0.05125
1.458,-0.1215625,0.05125
1.459,-0.120625,0.05125
1.46,-0.12,0.05125
1.461,-0.1190625,0.0509375
1.462,-0.118125,0.0509375
1.463,-0.1171875,0.0509375
1.464,-0.11625,0.0509375
1.465,-0.1153125,0.0509375
1.466,-0.114375,0.0509375
1.467,-0.113125,0.0509375
1.468,-0.1121875,0.050625
1.469,-0.11125,0.050625
1.47,-0.1103125,0.050625
1.471,-0.1090625,0.050625
1.472,-0.108125,0.0503125
1.473,-0.1071875,0.0503125
1.474,-0.1059375,0.0503125
1.475,-0.1053125,0.05
1.476,-0.1040625,0.05
1.477,-0.1034375,0.05
1.478,-0.1021875,0.05
1.479,-0.1015625,0.05
1.48,-0.100625,0.0496875
1.481,-0.1,0.0496875
1.482,-0.0990625,0.0496875
1.483,-0.09875,0.0496875
1.484,-0.0978125,0.0496875
1.485,-0.0975,0.0496875
1.486,-0.0965625,0.0496875
1.487,-0.09625,0.0496875
1.488,-0.0953125,0.0496875
1.489,-0.095,0.0496875
1.49,-0.094375,0.0496875
1.491,-0.09375,0.0496875
1.492,-0.0934375,0.049375
1.493,-0.093125,0.049375
1.494,-0.0925,0.0490625
1.495,-0.0921875,0.0490625
1.496,-0.0915625,0.0490625
1.497,-0.09125,0.04875
1.498,-0.0909375,0.04875
1.499,-0.0903125,0.04875
1.5,-0.0903125,0.0484375
1.501,-0.09,0.0484375
1.502,-0.0896875,0.0484375
1.503,-0.0896875,0.0484375
1.504,-0.089375,0.0484375
1.505,-0.089375,0.048125
1.506,-0.089375,0.048125
1.507,-0.089375,0.048125
1.508,-0.089375,0.0478125
1.509,-0.089375,0.0478125
1.51,-0.0896875,0.0478125
1.511,-0.09,0.0475
1.512,-0.09,0.0475
1.513,-0.090625,0.0471875
1.514,-0.0909375,0.0471875
1.515,-0.09125,0.0471875
1.516,-0.0915625,0.046875
1.517,-0.0921875,0.046875
1.518,-0.0925,0.046875
1.519,-0.093125,0.0465625
1.52,-0.0934375,0.0465625
1.521,-0.094375,0.0465625
1.522,-0.0946875,0.0465625
1.523,-0.0953125,0.0465625
1.524,-0.095625,0.0465625
1.525,-0.0965625,0.0465625
1.526,-0.096875,0.0465625
1.527,-0.0978125,0.0465625
1.528,-0.098125,0.0465625
1.529,-0.0984375,0.0465625
1.53,-0.099375,0.0465625
1.531,-0.0996875,0.0465625
1.532,-0.1003125,0.0465625
1.533,-0.100625,0.0465625
1.534,-0.1009375,0.0465625
1.535,-0.1015625,0.0465625
1.536,-0.1015625,0.0465625
1.537,-0.101875,0.046875
1.538,-0.1021875,0.046875
1.539,-0.1021875,0.046875
1.54,-0.1025,0.046875
1.541,-0.1025,0.046875
1.542,-0.1021875,0.0471875
1.543,-0.1021875,0.0471875
1.544,-0.1021875,0.0471875
1.545,-0.101875,0.0475
1.546,-0.1015625,0.0475
1.547,-0.1009375,0.0475
1.548,-0.100625,0.0475
1.549,-0.1003125,0.0478125
1.55,-0.1,0.0478125
1.551,-0.0990625,0.0478125
1.552,-0.09875,0.0478125
1.553,-0.098125,0.0478125
1.554,-0.0971875,0.0478125
1.555,-0.096875,0.0478125
1.556,-0.0959375,0.0478125
1.557,-0.095,0.0478125
1.558,-0.0946875,0.048125
1.559,-0.09375,0.048125
1.56,-0.093125,0.048125
1.561,-0.0925,0.048125
1.562,-0.0915625,0.048125
1.563,-0.090625,0.048125
1.564,-0.0903125,0.0484375
1.565,-0.089375,0.0484375
1.566,-0.0890625,0.0484375
1.567,-0.088125,0.0484375
1.568,-0.0878125,0.0484375
1.569,-0.086875,0.0484375
1.57,-0.0865625,0.0484375
1.571,-0.0859375,0.0484375
1.572,-0.085625,0.048125
1.573,-0.085,0.048125
1.574,-0.0846875,0.048125
1.575,-0.0840625,0.048125
1.576,-0.08375,0.048125
1.577,-0.0834375,0.048125
1.578,-0.083125,0.048125
1.579,-0.0828125,0.048125
1.58,-0.0825,0.048125
1.581,-0.0825,0.048125
1.582,-0.0825,0.048125
1.583,-0.0821875,0.048125
1.584,-0.0821875,0.048125
1.585,-0.0821875,0.0484375
1.586,-0.0821875,0.0484375
1.587,-0.0821875,0.0484375
1.588,-0.0821875,0.0484375
1.589,-0.0821875,0.048125
1.59,-0.0821875,0.048125
1.591,-0.0825,0.048125
1.592,-0.0825,0.048125
1.593,-0.0828125,0.048125
1.594,-0.0828125,0.048125
1.595,-0.0828125,0.048125
1.596,-0.083125,0.048125
1.597,-0.083125,0.048125
1.598,-0.08375,0.048125
1.599,-0.08375,0.048125
1.6,-0.084375,0.048125
1.601,-0.0846875,0.0484375
1.602,-0.085,0.0484375
1.603,-0.085625,0.0484375
1.604,-0.0865625,0.0484375
1.605,-0.0871875,0.0484375
1.606,-0.088125,0.0484375
1.607,-0.0890625,0.0484375
1.608,-0.09,0.048125
1.609,-0.09125,0.048125
1.61,-0.0925,0.048125
1.611,-0.09375,0.048125
1.612,-0.0953125,0.048125
1.613,-0.0965625,0.048125
1.614,-0.098125,0.048125
1.615,-0.0996875,0.048125
1.616,-0.1009375,0.0478125
1.617,-0.1025,0.0478125
1.618,-0.1040625,0.0478125
1.619,-0.1053125,0.0478125
1.62,-0.106875,0.0478125
1.621,-0.1084375,0.0478125
1.622,-0.1096875,0.048125
1.623,-0.11125,0.048125
1.624,-0.1125,0.048125
1.625,-0.11375,0.048125
1.626,-0.1153125,0.048125
1.627,-0.1165625,0.048125
1.628,-0.1178125,0.048125
1.629,-0.1190625,0.048125
1.63,-0.12,0.048125
1.631,-0.1209375,0.048125
1.632,-0.121875,0.048125
1.633,-0.1228125,0.048125
1.634,-0.1234375,0.048125
1.635,-0.12375,0.048125
1.636,-0.124375,0.048125
1.637,-0.1246875,0.048125
1.638,-0.1246875,0.048125
1.639,-0.1246875,0.0484375
1.64,-0.1246875,0.0484375
1.641,-0.1246875,0.0484375
1.642,-0.124375,0.04875
1.643,-0.12375,0.04875
1.644,-0.1234375,0.04875
1.645,-0.123125,0.0490625
1.646,-0.1221875,0.0490625
1.647,-0.1215625,0.049375
1.648,-0.12125,0.049375
1.649,-0.1203125,0.049375
1.65,-0.12,0.0496875
1.651,-0.1190625,0.0496875
1.652,-0.11875,0.0496875
1.653,-0.118125,0.0496875
1.654,-0.1171875,0.05
1.655,-0.116875,0.05
1.656,-0.11625,0.05
1.657,-0.1153125,0.05
1.658,-0.115,0.05
1.659,-0.1140625,0.0503125
1.66,-0.11375,0.0503125
1.661,-0.1134375,0.0503125
1.662,-0.1128125,0.0503125
1.663,-0.1121875,0.0503125
1.664,-0.111875,0.050625
1.665,-0.11125,0.050625
1.666,-0.1109375,0.050625
1.667,-0.110625,0.050625
1.668,-0.1103125,0.0503125
1.669,-0.1096875,0.0503125
1.67,-0.1096875,0.0503125
1.671,-0.1090625,0.0503125
1.672,-0.1090625,0.05
1.673,-0.1084375,0.05
1.674,-0.1084375,0.05
1.675,-0.1078125,0.0496875
1.676,-0.1078125,0.0496875
1.677,-0.1075,0.0496875
1.678,-0.106875,0.049375
1.679,-0.106875,0.049375
1.68,-0.1065625,0.0490625
1.681,-0.10625,0.04875
1.682,-0.1059375,0.04875
1.683,-0.105625,0.04875
1.684,-0.1053125,0.0484375
1.685,-0.105,0.0484375
1.686,-0.1046875,0.048125
1.687,-0.104375,0.0478125
1.688,-0.1040625,0.0478125
1.689,-0.10375,0.0475
1.69,-0.1034375,0.0475
1.691,-0.103125,0.0471875
1.692,-0.1028125,0.046875
1.693,-0.1025,0.046875
1.694,-0.1025,0.04625
1.695,-0.101875,0.04625
1.696,-0.101875,0.0459375
1.697,-0.10125,0.045625
1.698,-0.10125,0.045625
1.699,-0.1009375,0.0453125
1.7,-0.100625,0.045
1.701,-0.100625,0.045
1.702,-0.1003125,0.045
1.703,-0.1003125,0.0446875
1.704,-0.1003125,0.044375
1.705,-0.1003125,0.044375
1.706,-0.100625,0.044375
1.707,-0.100625,0.0440625
1.708,-0.100625,0.04375
1.709,-0.10125,0.04375
1.71,-0.10125,0.0434375
1.711,-0.101875,0.043125
1.712,-0.101875,0.043125
1.713,-0.1025,0.0428125
1.714,-0.1028125,0.0425
1.715,-0.103125,0.0425
1.716,-0.10375,0.0421875
1.717,-0.1040625,0.0421875
1.718,-0.1046875,0.041875
1.719,-0.105,0.041875
1.72,-0.105625,0.041875
1.721,-0.1059375,0.0415625
1.722,-0.1065625,0.0415625
1.723,-0.1071875,0.04125
1.724,-0.1075,0.04125
1.725,-0.1078125,0.04125
1.726,-0.1084375,0.0409375
1.727,-0.1090625,0.0409375
1.728,-0.109375,0.040625
1.729,-0.11,0.040625
1.73,-0.1103125,0.040625
1.731,-0.110625,0.0403125
1.732,-0.11125,0.0403125
1.733,-0.11125,0.04
1.734,-0.1115625,0.04
1.735,-0.111875,0.04
1.736,-0.111875,0.0396875
1.737,-0.1121875,0.0396875
1.738,-0.1121875,0.039375
1.739,-0.111875,0.039375
1.74,-0.111875,0.039375
1.741,-0.111875,0.039375
1.742,-0.111875,0.0390625
1.743,-0.1115625,0.0390625
1.744,-0.11125,0.0390625
1.745,-0.11125,0.0390625
1.746,-0.1109375,0.0390625
1.747,-0.1103125,0.0390625
1.748,-0.1103125,0.0390625
1.749,-0.1096875,0.03875
1.75,-0.1096875,0.03875
1.751,-0.1090625,0.03875
1.752,-0.10875,0.03875
1.753,-0.1084375,0.03875
1.754,-0.1078125,0.03875
1.755,-0.1075,0.03875
1.756,-0.106875,0.03875
1.757,-0.1065625,0.03875
1.758,-0.1059375,0.03875
1.759,-0.1053125,0.0390625
1.76,-0.105,0.0390625
1.761,-0.1040625,0.0390625
1.762,-0.10375,0.039375
1.763,-0.1034375,0.039375
1.764,-0.1028125,0.0396875
1.765,-0.1021875,0.0396875
1.766,-0.101875,0.0396875
1.767,-0.10125,0.04
1.768,-0.1009375,0.04
1.769,-0.1003125,0.04
1.77,-0.0996875,0.0403125
1.771,-0.0990625,0.0403125
1.772,-0.09875,0.040625
1.773,-0.0984375,0.040625
1.774,-0.0975,0.040625
1.775,-0.0971875,0.0409375
1.776,-0.096875,0.0409375
1.777,-0.0959375,0.04125
1.778,-0.095625,0.0415625
1.779,-0.0953125,0.0415625
1.78,-0.0946875,0.0415625
1.781,-0.094375,0.041875
1.782,-0.09375,0.0421875
1.783,-0.09375,0.0421875
1.784,-0.093125,0.0425
1.785,-0.093125,0.0428125
1.786,-0.0928125,0.0428125
1.787,-0.0928125,0.043125
1.788,-0.0928125,0.043125
1.789,-0.0928125,0.043125
1.79,-0.0928125,0.0434375
1.791,-0.093125,0.0434375
1.792,-0.093125,0.0434375
1.793,-0.093125,0.04375
1.794,-0.0934375,0.04375
1.795,-0.0934375,0.04375
1.796,-0.09375,0.04375
1.797,-0.0940625,0.0440625
1.798,-0.0940625,0.0440625
1.799,-0.0946875,0.044375
1.8,-0.0946875,0.044375
1.801,-0.095,0.044375
1.802,-0.0953125,0.0446875
1.803,-0.095625,0.0446875
1.804,-0.095625,0.0446875
1.805,-0.0959375,0.045
1.806,-0.0965625,0.045
1.807,-0.0965625,0.0453125
1.808,-0.096875,0.0453125
1.809,-0.0971875,0.0453125
1.81,-0.0975,0.0453125
1.811,-0.0975,0.0453125
1.812,-0.0975,0.0453125
1.813,-0.0978125,0.0453125
1.814,-0.0978125,0.0453125
1.815,-0.0978125,0.045625
1.816,-0.0978125,0.045625
1.817,-0.0978125,0.045625
1.818,-0.0978125,0.045625
1.819,-0.0975,0.045625
1.82,-0.0975,0.045625
1.821,-0.0975,0.0459375
1.822,-0.096875,0.0459375
1.823,-0.0965625,0.0459375
1.824,-0.0965625,0.0459375
1.825,-0.09625,0.04625
1.826,-0.0959375,0.04625
1.827,-0.0953125,0.04625
1.828,-0.0953125,0.04625
1.829,-0.0946875,0.04625
1.83,-0.0946875,0.04625
1.831,-0.0940625,0.04625
1.832,-0.09375,0.04625
1.833,-0.0934375,0.04625
1.834,-0.093125,0.04625
1.835,-0.0928125,0.04625
1.836,-0.0925,0.04625
1.837,-0.0925,0.04625
1.838,-0.091875,0.0459375
1.839,-0.091875,0.0459375
1.84,-0.0915625,0.0459375
1.841,-0.09125,0.0459375
1.842,-0.09125,0.0459375
1.843,-0.0909375,0.0459375
1.844,-0.090625,0.0459375
1.845,-0.090625,0.0459375
1.846,-0.0903125,0.0459375
1.847,-0.0903125,0.0459375
1.848,-0.0903125,0.0459375
1.849,-0.09,0.0459375
1.85,-0.09,0.0459375
1.851,-0.0896875,0.045625
1.852,-0.0896875,0.045625
1.853,-0.0896875,0.045625
1.854,-0.089375,0.0453125
1.855,-0.089375,0.0453125
1.856,-0.089375,0.0453125
1.857,-0.089375,0.045
1.858,-0.089375,0.045
1.859,-0.089375,0.045
1.86,-0.0890625,0.045
1.861,-0.0890625,0.045
1.862,-0.0890625,0.045
1.863,-0.08875,0.045
1.864,-0.08875,0.0446875
1.865,-0.0884375,0.0446875
1.866,-0.0884375,0.0446875
1.867,-0.088125,0.0446875
1.868,-0.0878125,0.0446875
1.869,-0.0875,0.0446875
1.87,-0.0875,0.0446875
1.871,-0.0871875,0.0446875
1.872,-0.086875,0.044375
1.873,-0.086875,0.044375
1.874,-0.0865625,0.044375
1.875,-0.08625,0.044375
1.876,-0.0859375,0.044375
1.877,-0.0859375,0.044375
1.878,-0.0859375,0.0440625
1.879,-0.0859375,0.0440625
1.88,-0.0859375,0.0440625
1.881,-0.0859375,0.0440625
1.882,-0.0859375,0.0440625
1.883,-0.0859375,0.0440625
1.884,-0.08625,0.0440625
1.885,-0.0865625,0.0440625
1.886,-0.086875,0.0440625
1.887,-0.0871875,0.0440625
1.888,-0.0878125,0.0440625
1.889,-0.088125,0.0440625
1.89,-0.0884375,0.0440625
1.891,-0.0890625,0.0440625
1.892,-0.09,0.0440625
1.893,-0.0903125,0.0440625
1.894,-0.09125,0.04375
1.895,-0.0915625,0.04375
1.896,-0.0925,0.04375
1.897,-0.093125,0.04375
1.898,-0.0940625,0.0440625
1.899,-0.0946875,0.0440625
1.9,-0.095625,0.0440625
1.901,-0.096875,0.0440625
1.902,-0.0978125,0.0440625
1.903,-0.09875,0.0440625
1.904,-0.1,0.0440625
1.905,-0.10125,0.044375
1.906,-0.1025,0.044375
1.907,-0.10375,0.044375
1.908,-0.105,0.044375
1.909,-0.10625,0.044375
1.91,-0.1075,0.044375
1.911,-0.10875,0.044375
1.912,-0.11,0.0446875
1.913,-0.11125,0.0446875
1.914,-0.1125,0.0446875
1.915,-0.11375,0.0446875
1.916,-0.115,0.0446875
1.917,-0.1159375,0.0446875
1.918,-0.116875,0.0446875
1.919,-0.118125,0.0446875
1.92,-0.1190625,0.045
1.921,-0.12,0.045
1.922,-0.1209375,0.045
1.923,-0.121875,0.045
1.924,-0.1228125,0.0453125
1.925,-0.1234375,0.0453125
1.926,-0.1240625,0.0453125
1.927,-0.125,0.0453125
1.928,-0.1259375,0.0453125
1.929,-0.1265625,0.0453125
1.93,-0.126875,0.045625
1.931,-0.1275,0.045625
1.932,-0.1278125,0.045625
1.933,-0.128125,0.045625
1.934,-0.1284375,0.045625
1.935,-0.12875,0.045625
1.936,-0.12875,0.045625
1.937,-0.1284375,0.045625
1.938,-0.1284375,0.045625
1.939,-0.128125,0.045625
1.94,-0.1275,0.045625
1.941,-0.1271875,0.0459375
1.942,-0.12625,0.0459375
1.943,-0.1259375,0.0459375
1.944,-0.125,0.04625
1.945,-0.1240625,0.04625
1.946,-0.123125,0.04625
1.947,-0.1221875,0.04625
1.948,-0.12125,0.0465625
1.949,-0.12,0.0465625
1.95,-0.11875,0.0465625
1.951,-0.1175,0.0465625
1.952,-0.11625,0.0465625
1.953,-0.115,0.0465625
1.954,-0.11375,0.0465625
1.955,-0.1125,0.0465625
1.956,-0.1109375,0.046875
1.957,-0.1096875,0.046875
1.958,-0.1084375,0.046875
1.959,-0.1071875,0.046875
1.96,-0.1059375,0.046875
1.961,-0.1046875,0.046875
1.962,-0.1034375,0.046875
1.963,-0.1025,0.0471875
1.964,-0.1015625,0.0471875
1.965,-0.1003125,0.0471875
1.966,-0.0996875,0.0471875
1.967,-0.09875,0.0471875
1.968,-0.0984375,0.046875
1.969,-0.0975,0.046875
1.97,-0.0971875,0.046875
1.971,-0.0965625,0.046875
1.972,-0.0965625,0.046875
1.973,-0.0959375,0.046875
1.974,-0.0959375,0.0465625
1.975,-0.0959375,0.0465625
1.976,-0.095625,0.0465625
1.977,-0.0959375,0.0465625
1.978,-0.0959375,0.0465625
1.979,-0.0959375,0.0465625
1.98,-0.0959375,0.04625
1.981,-0.09625,0.04625
1.982,-0.0965625,0.04625
1.983,-0.096875,0.04625
1.984,-0.096875,0.04625
1.985,-0.0971875,0.04625
1.986,-0.0975,0.04625
1.987,-0.0978125,0.04625
1.988,-0.098125,0.04625
1.989,-0.0984375,0.04625
1.99,-0.0984375,0.0459375
1.991,-0.09875,0.0459375
1.992,-0.0990625,0.0459375
1.993,-0.099375,0.0459375
1.994,-0.099375,0.0459375
1.995,-0.0996875,0.0459375
1.996,-0.0996875,0.045625
1.997,-0.0996875,0.045625
1.998,-0.0996875,0.045625
1.999,-0.0996875,0.045625
2,-0.0996875,0.045625
2.001,-0.099375,0.045625
2.002,-0.099375,0.045625
2.003,-0.0990625,0.045625
2.004,-0.0990625,0.045625
2.005,-0.0990625,0.045625
2.006,-0.09875,0.045625
2.007,-0.09875,0.045625
2.008,-0.09875,0.045625
2.009,-0.09875,0.0453125
2.01,-0.09875,0.0453125
2.011,-0.0990625,0.0453125
2.012,-0.0990625,0.045
2.013,-0.099375,0.045
2.014,-0.0996875,0.045
2.015,-0.1,0.045
2.016,-0.100625,0.0446875
2.017,-0.1009375,0.0446875
2.018,-0.10125,0.0446875
2.019,-0.1021875,0.0446875
2.02,-0.1025,0.0446875
2.021,-0.103125,0.0446875
2.022,-0.1034375,0.0446875
2.023,-0.104375,0.0446875
2.024,-0.1046875,0.0446875
2.025,-0.1053125,0.0446875
2.026,-0.105625,0.0446875
2.027,-0.1065625,0.0446875
2.028,-0.106875,0.044375
2.029,-0.1075,0.044375
2.03,-0.1078125,0.044375
2.031,-0.108125,0.044375
2.032,-0.10875,0.044375
2.033,-0.10875,0.044375
2.034,-0.109375,0.044375
2.035,-0.109375,0.0446875
2.036,-0.1096875,0.0446875
2.037,-0.1096875,0.0446875
2.038,-0.1096875,0.0446875
2.039,-0.1096875,0.0446875
2.04,-0.1096875,0.0446875
2.041,-0.1096875,0.045
2.042,-0.1090625,0.045
2.043,-0.1090625,0.0453125
2.044,-0.1084375,0.0453125
2.045,-0.1078125,0.0453125
2.046,-0.1075,0.045625
2.047,-0.1071875,0.045625
2.048,-0.10625,0.0459375
2.049,-0.1053125,0.0459375
2.05,-0.105,0.04625
2.051,-0.1040625,0.04625
2.052,-0.1034375,0.0465625
2.053,-0.1025,0.0465625
2.054,-0.1015625,0.046875
2.055,-0.1009375,0.0471875
2.056,-0.1003125,0.0471875
2.057,-0.099375,0.0471875
2.058,-0.09875,0.0475
2.059,-0.0978125,0.0478125
2.06,-0.0975,0.048125
2.061,-0.0965625,0.048125
2.062,-0.0959375,0.0484375
2.063,-0.095625,0.04875
2.064,-0.095,0.04875
2.065,-0.094375,0.0490625
2.066,-0.0940625,0.049375
2.067,-0.09375,0.049375
2.068,-0.0934375,0.0496875
2.069,-0.0928125,0.0496875
2.07,-0.0928125,0.05
2.071,-0.0925,0.05
2.072,-0.0921875,0.05
2.073,-0.0921875,0.0503125
2.074,-0.0921875,0.0503125
2.075,-0.0921875,0.0503125
2.076,-0.0921875,0.0503125
2.077,-0.0921875,0.050625
2.078,-0.0921875,0.050625
2.079,-0.0921875,0.050625
2.08,-0.0921875,0.050625
2.081,-0.0921875,0.0509375
2.082,-0.0925,0.0509375
2.083,-0.0925,0.0509375
2.084,-0.0925,0.0509375
2.085,-0.0928125,0.0509375
2.086,-0.0928125,0.05125
2.087,-0.0928125,0.05125
2.088,-0.093125,0.05125
2.089,-0.093125,0.05125
2.09,-0.093125,0.05125
2.091,-0.093125,0.05125
2.092,-0.093125,0.05125
2.093,-0.093125,0.05125
2.094,-0.0934375,0.0515625
2.095,-0.0934375,0.0515625
2.096,-0.093125,0.0515625
2.097,-0.093125,0.0515625
2.098,-0.093125,0.051875
2.099,-0.093125,0.051875
2.1,-0.093125,0.0521875
2.101,-0.093125,0.0525
2.102,-0.0928125,0.0525
2.103,-0.0928125,0.0528125
2.104,-0.0925,0.0528125
2.105,-0.0921875,0.053125
2.106,-0.0921875,0.0534375
2.107,-0.091875,0.05375
2.108,-0.0915625,0.05375
2.109,-0.09125,0.0540625
2.11,-0.0909375,0.054375
2.111,-0.090625,0.054375
2.112,-0.0903125,0.0546875
2.113,-0.0896875,0.055
2.114,-0.0896875,0.055
2.115,-0.0890625,0.055625
2.116,-0.0890625,0.055625
2.117,-0.0884375,0.0559375
2.118,-0.0884375,0.05625
2.119,-0.0878125,0.0565625
2.12,-0.0878125,0.056875
2.121,-0.0875,0.0571875
2.122,-0.086875,0.0571875
2.123,-0.086875,0.0578125
2.124,-0.0865625,0.0578125
2.125,-0.08625,0.058125
2.126,-0.0859375,0.0584375
2.127,-0.085625,0.05875
2.128,-0.0853125,0.05875
2.129,-0.0853125,0.0590625
2.13,-0.0846875,0.0590625
2.131,-0.0846875,0.0590625
2.132,-0.084375,0.059375
2.133,-0.0840625,0.059375
2.134,-0.0840625,0.059375
2.135,-0.08375,0.059375
2.136,-0.0834375,0.0596875
2.137,-0.0834375,0.0596875
2.138,-0.083125,0.0596875
2.139,-0.083125,0.06
2.14,-0.083125,0.06
2.141,-0.0828125,0.06
2.142,-0.0828125,0.06
2.143,-0.0828125,0.0603125
2.144,-0.0828125,0.0603125
2.145,-0.0828125,0.0603125
2.146,-0.0828125,0.0603125
2.147,-0.0825,0.0603125
2.148,-0.0825,0.0603125
2.149,-0.0828125,0.0603125
2.15,-0.0828125,0.06
2.151,-0.0828125,0.06
2.152,-0.0828125,0.06
2.153,-0.0828125,0.06
2.154,-0.0828125,0.0596875
2.155,-0.0828125,0.0596875
2.156,-0.0828125,0.0596875
2.157,-0.083125,0.059375
2.158,-0.083125,0.059375
2.159,-0.0834375,0.059375
2.16,-0.0834375,0.0590625
2.161,-0.0834375,0.0590625
2.162,-0.08375,0.05875
2.163,-0.08375,0.05875
2.164,-0.08375,0.05875
2.165,-0.0840625,0.0584375
2.166,-0.0840625,0.0584375
2.167,-0.084375,0.058125
2.168,-0.084375,0.058125
2.169,-0.084375,0.0578125
2.17,-0.084375,0.0575
2.171,-0.084375,0.0575
2.172,-0.0846875,0.0571875
2.173,-0.0846875,0.0571875
2.174,-0.0846875,0.056875
2.175,-0.0846875,0.0565625
2.176,-0.0846875,0.05625
2.177,-0.0846875,0.05625
2.178,-0.0846875,0.0559375
2.179,-0.0846875,0.0559375
2.18,-0.085,0.055625
2.181,-0.085,0.055625
2.182,-0.085,0.055625
2.183,-0.0853125,0.0553125
2.184,-0.0853125,0.0553125
2.185,-0.0853125,0.055
2.186,-0.085625,0.055
2.187,-0.0859375,0.055
2.188,-0.08625,0.0546875
2.189,-0.08625,0.0546875
2.19,-0.0865625,0.054375
2.191,-0.086875,0.0540625
2.192,-0.0871875,0.0540625
2.193,-0.0875,0.05375
2.194,-0.0878125,0.05375
2.195,-0.088125,0.05375
2.196,-0.0884375,0.0534375
2.197,-0.0890625,0.0534375
2.198,-0.089375,0.0534375
2.199,-0.0896875,0.0534375
2.2,-0.0903125,0.0534375
2.201,-0.0909375,0.053125
2.202,-0.09125,0.053125
2.203,-0.0915625,0.053125
2.204,-0.0925,0.053125
2.205,-0.0928125,0.053125
2.206,-0.0934375,0.053125
2.207,-0.094375,0.053125
2.208,-0.0946875,0.053125
2.209,-0.095625,0.053125
2.21,-0.09625,0.053125
2.211,-0.0965625,0.053125
2.212,-0.0975,0.053125
2.213,-0.0978125,0.053125
2.214,-0.098125,0.0528125
2.215,-0.0990625,0.0528125
2.216,-0.0996875,0.0528125
2.217,-0.1,0.0528125
2.218,-0.1003125,0.0528125
2.219,-0.1009375,0.053125
2.22,-0.10125,0.053125
2.221,-0.1015625,0.053125
2.222,-0.1021875,0.053125
2.223,-0.1021875,0.053125
2.224,-0.1028125,0.053125
2.225,-0.103125,0.053125
2.226,-0.1034375,0.053125
2.227,-0.1034375,0.053125
2.228,-0.10375,0.053125
2.229,-0.1040625,0.053125
2.23,-0.1040625,0.053125
2.231,-0.1040625,0.053125
2.232,-0.104375,0.053125
2.233,-0.104375,0.053125
2.234,-0.1046875,0.053125
2.235,-0.1046875,0.053125
2.236,-0.1046875,0.053125
2.237,-0.1046875,0.053125
2.238,-0.1046875,0.053125
2.239,-0.105,0.053125
2.24,-0.105,0.053125
2.241,-0.105,0.0534375
2.242,-0.105,0.0534375
2.243,-0.105,0.0534375
2.244,-0.105,0.0534375
2.245,-0.1053125,0.05375
2.246,-0.1053125,0.05375
2.247,-0.1053125,0.05375
2.248,-0.105625,0.05375
2.249,-0.105625,0.05375
2.25,-0.105625,0.05375
2.251,-0.1059375,0.05375
2.252,-0.1059375,0.05375
2.253,-0.10625,0.05375
2.254,-0.10625,0.05375
2.255,-0.1065625,0.05375
2.256,-0.1065625,0.0540625
2.257,-0.106875,0.0540625
2.258,-0.1071875,0.0540625
2.259,-0.1071875,0.0540625
2.26,-0.1075,0.0540625
2.261,-0.1075,0.0540625
2.262,-0.1075,0.0540625
2.263,-0.1075,0.0540625
2.264,-0.1075,0.0540625
2.265,-0.1075,0.0540625
2.266,-0.1075,0.0540625
2.267,-0.1075,0.0540625
2.268,-0.1071875,0.0540625
2.269,-0.106875,0.0540625
2.27,-0.1065625,0.0540625
2.271,-0.10625,0.0540625
2.272,-0.1059375,0.05375
2.273,-0.105625,0.05375
2.274,-0.105,0.05375
2.275,-0.1046875,0.0534375
2.276,-0.1040625,0.0534375
2.277,-0.10375,0.0534375
2.278,-0.1028125,0.0534375
2.279,-0.1025,0.0534375
2.28,-0.1015625,0.0534375
2.281,-0.10125,0.0534375
2.282,-0.100625,0.0534375
2.283,-0.0996875,0.0534375
2.284,-0.099375,0.0534375
2.285,-0.0984375,0.0534375
2.286,-0.0975,0.0534375
2.287,-0.0971875,0.053125
2.288,-0.0965625,0.053125
2.289,-0.095625,0.053125
2.29,-0.0953125,0.053125
2.291,-0.095,0.053125
2.292,-0.094375,0.0528125
2.293,-0.09375,0.0528125
2.294,-0.0934375,0.0528125
2.295,-0.093125,0.0528125
2.296,-0.0925,0.0528125
2.297,-0.0921875,0.0528125
2.298,-0.0921875,0.0528125
2.299,-0.091875,0.0525
2.3,-0.0915625,0.0525
2.301,-0.09125,0.0525
2.302,-0.09125,0.0525
2.303,-0.09125,0.0525
2.304,-0.0909375,0.0525
2.305,-0.090625,0.0525
2.306,-0.090625,0.0525
2.307,-0.0903125,0.0525
2.308,-0.09,0.0525
2.309,-0.09,0.0525
2.31,-0.09,0.0525
2.311,-0.089375,0.0521875
2.312,-0.089375,0.0521875
2.313,-0.0890625,0.0521875
2.314,-0.08875,0.051875
2.315,-0.08875,0.051875
2.316,-0.088125,0.051875
2.317,-0.088125,0.051875
2.318,-0.0875,0.051875
2.319,-0.0871875,0.051875
2.32,-0.0865625,0.0515625
2.321,-0.08625,0.0515625
2.322,-0.0859375,0.0515625
2.323,-0.085,0.0515625
2.324,-0.0846875,0.0515625
2.325,-0.0840625,0.0515625
2.326,-0.0834375,0.05125
2.327,-0.0825,0.05125
2.328,-0.0821875,0.05125
2.329,-0.08125,0.0509375
2.33,-0.0809375,0.0509375
2.331,-0.08,0.050625
2.332,-0.0790625,0.050625
2.333,-0.07875,0.050625
2.334,-0.0784375,0.0503125
2.335,-0.0775,0.0503125
2.336,-0.0771875,0.0503125
2.337,-0.076875,0.05
2.338,-0.07625,0.05
2.339,-0.07625,0.0496875
2.34,-0.0759375,0.0496875
2.341,-0.0759375,0.0496875
2.342,-0.075625,0.0496875
2.343,-0.075625,0.049375
2.344,-0.0759375,0.049375
2.345,-0.0759375,0.049375
2.346,-0.0759375,0.0490625
2.347,-0.07625,0.0490625
2.348,-0.0765625,0.0490625
2.349,-0.076875,0.04875
2.35,-0.0771875,0.04875
2.351,-0.0778125,0.04875
2.352,-0.078125,0.0484375
2.353,-0.0784375,0.0484375
2.354,-0.0790625,0.0484375
2.355,-0.0796875,0.048125
2.356,-0.08,0.048125
2.357,-0.0809375,0.048125
2.358,-0.0815625,0.048125
2.359,-0.0825,0.0478125
2.36,-0.0828125,0.0478125
2.361,-0.08375,0.0478125
2.362,-0.084375,0.0478125
2.363,-0.0853125,0.0478125
2.364,-0.0859375,0.0478125
2.365,-0.086875,0.0478125
2.366,-0.0875,0.0478125
2.367,-0.0884375,0.0475
2.368,-0.08875,0.0475
2.369,-0.0896875,0.0475
2.37,-0.09,0.0475
2.371,-0.090625,0.0471875
2.372,-0.0915625,0.0471875
2.373,-0.091875,0.0471875
2.374,-0.0925,0.046875
2.375,-0.0928125,0.046875
2.376,-0.093125,0.046875
2.377,-0.09375,0.046875
2.378,-0.0940625,0.046875
2.379,-0.0940625,0.046875
2.38,-0.094375,0.0465625
2.381,-0.0946875,0.0465625
2.382,-0.0946875,0.0465625
2.383,-0.095,0.0465625
2.384,-0.095,0.0465625
2.385,-0.0953125,0.0465625
2.386,-0.0953125,0.0465625
2.387,-0.095625,0.0465625
2.388,-0.095625,0.04625
2.389,-0.095625,0.04625
2.39,-0.095625,0.04625
2.391,-0.095625,0.0459375
2.392,-0.095625,0.0459375
2.393,-0.095625,0.045625
2.394,-0.095625,0.045625
2.395,-0.095625,0.045625
2.396,-0.095625,0.0453125
2.397,-0.095625,0.0453125
2.398,-0.095625,0.0453125
2.399,-0.0953125,0.045
2.4,-0.0953125,0.045
2.401,-0.095,0.045
2.402,-0.095,0.0446875
2.403,-0.095,0.0446875
2.404,-0.095,0.0446875
2.405,-0.095,0.044375
2.406,-0.095,0.044375
2.407,-0.095,0.044375
2.408,-0.095,0.0440625
2.409,-0.095,0.0440625
2.41,-0.0953125,0.04375
2.411,-0.095625,0.04375
2.412,-0.0959375,0.0434375
2.413,-0.0959375,0.0434375
2.414,-0.0965625,0.043125
2.415,-0.096875,0.043125
2.416,-0.0971875,0.043125
2.417,-0.0978125,0.0428125
2.418,-0.098125,0.0428125
2.419,-0.0984375,0.0425
2.42,-0.0990625,0.0425
2.421,-0.099375,0.0425
2.422,-0.1003125,0.0425
2.423,-0.100625,0.0425
2.424,-0.10125,0.0425
2.425,-0.101875,0.0425
2.426,-0.1021875,0.0425
2.427,-0.103125,0.0421875
2.428,-0.1034375,0.0421875
2.429,-0.104375,0.0421875
2.43,-0.105,0.0421875
2.431,-0.105625,0.0425
2.432,-0.1065625,0.0425
2.433,-0.106875,0.0425
2.434,-0.1078125,0.0425
2.435,-0.108125,0.0425
2.436,-0.1084375,0.0428125
2.437,-0.1090625,0.0428125
2.438,-0.1096875,0.0428125
2.439,-0.11,0.043125
2.44,-0.1103125,0.043125
2.441,-0.110625,0.04375
2.442,-0.1109375,0.04375
2.443,-0.1109375,0.0440625
2.444,-0.1109375,0.044375
2.445,-0.110625,0.044375
2.446,-0.110625,0.045
2.447,-0.1103125,0.0453125
2.448,-0.11,0.0453125
2.449,-0.1096875,0.045625
2.45,-0.1090625,0.0459375
2.451,-0.10875,0.04625
2.452,-0.1084375,0.04625
2.453,-0.1075,0.0465625
2.454,-0.1071875,0.046875
2.455,-0.10625,0.046875
2.456,-0.1053125,0.0475
2.457,-0.1046875,0.0475
2.458,-0.10375,0.0478125
2.459,-0.103125,0.048125
2.46,-0.1021875,0.048125
2.461,-0.1009375,0.0484375
2.462,-0.1,0.04875
2.463,-0.0990625,0.04875
2.464,-0.0978125,0.0490625
2.465,-0.096875,0.0490625
2.466,-0.095625,0.049375
2.467,-0.0946875,0.049375
2.468,-0.0934375,0.049375
2.469,-0.0921875,0.049375
2.47,-0.09125,0.049375
2.471,-0.09,0.049375
2.472,-0.08875,0.049375
2.473,-0.0878125,0.049375
2.474,-0.086875,0.049375
2.475,-0.085625,0.0490625
2.476,-0.085,0.0490625
2.477,-0.0840625,0.0490625
2.478,-0.083125,0.0490625
2.479,-0.0825,0.04875
2.48,-0.081875,0.04875
2.481,-0.0809375,0.04875
2.482,-0.0803125,0.0484375
2.483,-0.08,0.0484375
2.484,-0.0796875,0.0484375
2.485,-0.0790625,0.048125
2.486,-0.07875,0.048125
2.487,-0.078125,0.048125
2.488,-0.078125,0.0478125
2.489,-0.0778125,0.0478125
2.49,-0.0775,0.0475
2.491,-0.0775,0.0475
2.492,-0.0771875,0.0471875
2.493,-0.0771875,0.046875
2.494,-0.0771875,0.046875
2.495,-0.0775,0.0465625
2.496,-0.0775,0.0465625
2.497,-0.0775,0.0465625
2.498,-0.0778125,0.04625
2.499,-0.0778125,0.04625
2.5,-0.078125,0.04625
2.501,-0.0784375,0.0459375
2.502,-0.07875,0.0459375
2.503,-0.07875,0.0459375
2.504,-0.0790625,0.0459375
2.505,-0.079375,0.0459375
2.506,-0.079375,0.045625
2.507,-0.0796875,0.045625
2.508,-0.08,0.045625
2.509,-0.08,0.0453125
2.51,-0.0803125,0.0453125
2.511,-0.0803125,0.0453125
2.512,-0.080625,0.0453125
2.513,-0.080625,0.0453125
2.514,-0.0809375,0.045
2.515,-0.0809375,0.045
2.516,-0.0809375,0.045
2.517,-0.0815625,0.045
2.518,-0.0815625,0.045
2.519,-0.081875,0.045
2.52,-0.0821875,0.045
2.521,-0.0825,0.045
2.522,-0.0828125,0.0453125
2.523,-0.0834375,0.0453125
2.524,-0.08375,0.0453125
2.525,-0.0840625,0.0453125
2.526,-0.085,0.0453125
2.527,-0.0853125,0.0453125
2.528,-0.08625,0.0453125
2.529,-0.0865625,0.0453125
2.53,-0.0875,0.0453125
2.531,-0.088125,0.045625
2.532,-0.08875,0.045625
2.533,-0.0896875,0.045625
2.534,-0.090625,0.045625
2.535,-0.09125,0.045625
2.536,-0.0925,0.045625
2.537,-0.0934375,0.0459375
2.538,-0.0940625,0.0459375
2.539,-0.095,0.0459375
2.54,-0.0959375,0.04625
2.541,-0.096875,0.04625
2.542,-0.0978125,0.04625
2.543,-0.09875,0.0465625
2.544,-0.0996875,0.0465625
2.545,-0.1003125,0.0465625
2.546,-0.10125,0.0465625
2.547,-0.1021875,0.0465625
2.548,-0.1028125,0.046875
2.549,-0.1034375,0.046875
2.55,-0.104375,0.046875
2.551,-0.105,0.046875
2.552,-0.1053125,0.046875
2.553,-0.1059375,0.046875
2.554,-0.10625,0.046875
2.555,-0.1065625,0.046875
2.556,-0.106875,0.046875
2.557,-0.1071875,0.046875
2.558,-0.1075,0.046875
2.559,-0.1075,0.046875
2.56,-0.1075,0.046875
2.561,-0.1078125,0.046875
2.562,-0.1078125,0.046875
2.563,-0.1075,0.046875
2.564,-0.1075,0.0471875
2.565,-0.1075,0.046875
2.566,-0.1075,0.046875
2.567,-0.1071875,0.046875
2.568,-0.1071875,0.046875
2.569,-0.1071875,0.046875
2.57,-0.106875,0.046875
2.571,-0.106875,0.046875
2.572,-0.106875,0.046875
2.573,-0.1065625,0.046875
2.574,-0.1065625,0.0465625
2.575,-0.1065625,0.0465625
2.576,-0.10625,0.0465625
2.577,-0.10625,0.0465625
2.578,-0.1059375,0.0465625
2.579,-0.1059375,0.0465625
2.58,-0.105625,0.04625
2.581,-0.105625,0.04625
2.582,-0.105625,0.04625
2.583,-0.1053125,0.04625
2.584,-0.1053125,0.0459375
2.585,-0.105,0.0459375
2.586,-0.105,0.0459375
2.587,-0.1046875,0.045625
2.588,-0.104375,0.045625
2.589,-0.104375,0.0453125
2.59,-0.1040625,0.0453125
2.591,-0.1040625,0.045
2.592,-0.10375,0.0446875
2.593,-0.1034375,0.0446875
2.594,-0.1034375,0.0446875
2.595,-0.103125,0.044375
2.596,-0.1025,0.0440625
2.597,-0.1025,0.0440625
2.598,-0.1021875,0.04375
2.599,-0.101875,0.04375
2.6,-0.101875,0.0434375
2.601,-0.1015625,0.0434375
2.602,-0.1015625,0.043125
2.603,-0.1015625,0.043125
2.604,-0.1015625,0.0428125
2.605,-0.1015625,0.0428125
2.606,-0.1015625,0.0425
2.607,-0.101875,0.0425
2.608,-0.1021875,0.0421875
2.609,-0.1025,0.041875
2.61,-0.1028125,0.041875
2.611,-0.1034375,0.0415625
2.612,-0.10375,0.0415625
2.613,-0.1040625,0.04125
2.614,-0.105,0.04125
2.615,-0.1053125,0.04125
2.616,-0.105625,0.0409375
2.617,-0.1065625,0.0409375
2.618,-0.106875,0.0409375
2.619,-0.1078125,0.040625
2.62,-0.108125,0.040625
2.621,-0.10875,0.040625
2.622,-0.109375,0.040625
2.623,-0.1096875,0.040625
2.624,-0.11,0.0403125
2.625,-0.110625,0.0403125
2.626,-0.1109375,0.0403125
2.627,-0.11125,0.0403125
2.628,-0.1115625,0.0403125
2.629,-0.111875,0.04
2.63,-0.1121875,0.04
2.631,-0.1121875,0.04
2.632,-0.1121875,0.04
2.633,-0.1121875,0.04
2.634,-0.111875,0.04
2.635,-0.111875,0.04
2.636,-0.11125,0.04
2.637,-0.1109375,0.04
2.638,-0.110625,0.04
2.639,-0.11,0.0403125
2.64,-0.1090625,0.0403125
2.641,-0.1084375,0.0403125
2.642,-0.1075,0.0403125
2.643,-0.1065625,0.0403125
2.644,-0.105625,0.0403125
2.645,-0.1046875,0.0403125
2.646,-0.10375,0.040625
2.647,-0.1025,0.040625
2.648,-0.1015625,0.040625
2.649,-0.1003125,0.040625
2.65,-0.099375,0.040625
2.651,-0.0984375,0.040625
2.652,-0.0971875,0.0409375
2.653,-0.0959375,0.0409375
2.654,-0.095,0.0409375
2.655,-0.0940625,0.04125
2.656,-0.093125,0.04125
2.657,-0.091875,0.04125
2.658,-0.09125,0.0415625
2.659,-0.09,0.0415625
2.66,-0.089375,0.0415625
2.661,-0.0884375,0.041875
2.662,-0.0875,0.041875
2.663,-0.0865625,0.041875
2.664,-0.085625,0.0421875
2.665,-0.085,0.0421875
2.666,-0.0840625,0.0421875
2.667,-0.083125,0.0425
2.668,-0.0825,0.0425
2.669,-0.081875,0.0425
2.67,-0.0809375,0.0428125
2.671,-0.0803125,0.0428125
2.672,-0.079375,0.0428125
2.673,-0.07875,0.043125
2.674,-0.0784375,0.043125
2.675,-0.078125,0.043125
2.676,-0.0775,0.0434375
2.677,-0.0771875,0.0434375
2.678,-0.0765625,0.0434375
2.679,-0.0765625,0.04375
2.68,-0.0759375,0.04375
2.681,-0.075625,0.0440625
2.682,-0.075625,0.0440625
2.683,-0.0753125,0.0440625
2.684,-0.075,0.044375
2.685,-0.075,0.044375
2.686,-0.075,0.044375
2.687,-0.0746875,0.0446875
2.688,-0.0746875,0.0446875
2.689,-0.0746875,0.0446875
2.69,-0.0746875,0.045
2.691,-0.0746875,0.045
2.692,-0.0746875,0.045
2.693,-0.0746875,0.0453125
2.694,-0.0746875,0.0453125
2.695,-0.075,0.0453125
2.696,-0.0753125,0.0453125
2.697,-0.075625,0.045625
2.698,-0.0759375,0.045625
2.699,-0.076875,0.045625
2.7,-0.0775,0.045625
2.701,-0.0778125,0.045625
2.702,-0.07875,0.0459375
2.703,-0.0796875,0.0459375
2.704,-0.080625,0.0459375
2.705,-0.0815625,0.0459375
2.706,-0.0828125,0.0459375
2.707,-0.0840625,0.04625
2.708,-0.0853125,0.04625
2.709,-0.0865625,0.04625
2.71,-0.088125,0.04625
2.711,-0.089375,0.04625
2.712,-0.090625,0.04625
2.713,-0.0925,0.0459375
2.714,-0.09375,0.0459375
2.715,-0.0953125,0.0459375
2.716,-0.096875,0.0459375
2.717,-0.0984375,0.0459375
2.718,-0.0996875,0.0459375
2.719,-0.1015625,0.0459375
2.72,-0.1028125,0.0459375
2.721,-0.104375,0.0459375
2.722,-0.1059375,0.045625
2.723,-0.1071875,0.045625
2.724,-0.10875,0.045625
2.725,-0.1103125,0.045625
2.726,-0.1115625,0.045625
2.727,-0.1128125,0.0453125
2.728,-0.114375,0.0453125
2.729,-0.115625,0.045
2.73,-0.116875,0.045
2.731,-0.118125,0.045
2.732,-0.119375,0.0446875
2.733,-0.12,0.0446875
2.734,-0.12125,0.0446875
2.735,-0.121875,0.044375
2.736,-0.1228125,0.044375
2.737,-0.123125,0.0440625
2.738,-0.1240625,0.0440625
2.739,-0.124375,0.0440625
2.74,-0.1246875,0.0440625
2.741,-0.1253125,0.0440625
2.742,-0.1253125,0.04375
2.743,-0.125625,0.04375
2.744,-0.125625,0.04375
2.745,-0.1259375,0.04375
2.746,-0.12625,0.04375
2.747,-0.12625,0.0434375
2.748,-0.1265625,0.0434375
2.749,-0.1265625,0.0434375
2.75,-0.126875,0.0434375
2.751,-0.126875,0.0434375
2.752,-0.1271875,0.0434375
2.753,-0.1271875,0.0434375
2.754,-0.1271875,0.0434375
2.755,-0.1275,0.0434375
2.756,-0.1275,0.0434375
2.757,-0.1271875,0.0434375
2.758,-0.1271875,0.0434375
2.759,-0.1271875,0.0434375
2.76,-0.126875,0.0434375
2.761,-0.126875,0.0434375
2.762,-0.126875,0.0434375
2.763,-0.12625,0.0434375
2.764,-0.12625,0.0434375
2.765,-0.1259375,0.0434375
2.766,-0.125625,0.0434375
2.767,-0.1253125,0.0434375
2.768,-0.125,0.0434375
2.769,-0.1246875,0.0434375
2.77,-0.124375,0.0434375
2.771,-0.1240625,0.043125
2.772,-0.12375,0.043125
2.773,-0.1234375,0.043125
2.774,-0.1228125,0.043125
2.775,-0.1225,0.043125
2.776,-0.1221875,0.0428125
2.777,-0.12125,0.0428125
2.778,-0.1209375,0.0428125
2.779,-0.12,0.0428125
2.78,-0.1196875,0.0428125
2.781,-0.11875,0.0428125
2.782,-0.1178125,0.0425
2.783,-0.1171875,0.0425
2.784,-0.11625,0.0425
2.785,-0.115625,0.0425
2.786,-0.1146875,0.0425
2.787,-0.11375,0.0425
2.788,-0.1128125,0.0425
2.789,-0.111875,0.0425
2.79,-0.11125,0.0425
2.791,-0.1103125,0.0425
2.792,-0.109375,0.0425
2.793,-0.1084375,0.0425
2.794,-0.1078125,0.0425
2.795,-0.106875,0.0425
2.796,-0.1059375,0.0425
2.797,-0.105,0.0425
2.798,-0.1040625,0.0428125
2.799,-0.1034375,0.0428125
2.8,-0.1025,0.0428125
2.801,-0.101875,0.043125
2.802,-0.1009375,0.043125
2.803,-0.1,0.043125
2.804,-0.099375,0.043125
2.805,-0.09875,0.0434375
2.806,-0.0978125,0.0434375
2.807,-0.096875,0.0434375
2.808,-0.0965625,0.04375
2.809,-0.0959375,0.04375
2.81,-0.095,0.04375
2.811,-0.0946875,0.0440625
2.812,-0.094375,0.0440625
2.813,-0.09375,0.0440625
2.814,-0.0934375,0.0440625
2.815,-0.0928125,0.0440625
2.816,-0.0928125,0.044375
2.817,-0.0921875,0.044375
2.818,-0.0921875,0.044375
2.819,-0.091875,0.044375
2.82,-0.0915625,0.044375
2.821,-0.0915625,0.044375
2.822,-0.0915625,0.044375
2.823,-0.09125,0.044375
2.824,-0.09125,0.044375
2.825,-0.09125,0.044375
2.826,-0.09125,0.0440625
2.827,-0.09125,0.0440625
2.828,-0.09125,0.0440625
2.829,-0.09125,0.0440625
2.83,-0.09125,0.04375
2.831,-0.09125,0.04375
2.832,-0.09125,0.04375
2.833,-0.09125,0.0434375
2.834,-0.09125,0.0434375
2.835,-0.09125,0.043125
2.836,-0.09125,0.043125
2.837,-0.0915625,0.0428125
2.838,-0.0915625,0.0428125
2.839,-0.0915625,0.0425
2.84,-0.091875,0.0425
2.841,-0.091875,0.0421875
2.842,-0.0921875,0.0421875
2.843,-0.0925,0.041875
2.844,-0.0925,0.041875
2.845,-0.0928125,0.041875
2.846,-0.093125,0.0415625
2.847,-0.093125,0.04125
2.848,-0.0934375,0.04125
2.849,-0.09375,0.0409375
2.85,-0.0940625,0.0409375
2.851,-0.094375,0.040625
2.852,-0.0946875,0.040625
2.853,-0.095,0.0403125
2.854,-0.0953125,0.0403125
2.855,-0.095625,0.04
2.856,-0.095625,0.04
2.857,-0.09625,0.0396875
2.858,-0.09625,0.0396875
2.859,-0.096875,0.039375
2.86,-0.0971875,0.039375
2.861,-0.0971875,0.0390625
2.862,-0.0975,0.0390625
2.863,-0.0975,0.0390625
2.864,-0.098125,0.03875
2.865,-0.098125,0.03875
2.866,-0.098125,0.0384375
2.867,-0.0984375,0.0384375
2.868,-0.09875,0.0384375
2.869,-0.09875,0.038125
2.87,-0.09875,0.038125
2.871,-0.0990625,0.038125
2.872,-0.0990625,0.0378125
2.873,-0.0990625,0.0378125
2.874,-0.0990625,0.0378125
2.875,-0.0990625,0.0378125
2.876,-0.0990625,0.0378125
2.877,-0.0990625,0.0375
2.878,-0.0990625,0.0375
2.879,-0.0990625,0.0375
2.88,-0.0990625,0.0375
2.881,-0.099375,0.0378125
2.882,-0.099375,0.0378125
2.883,-0.099375,0.0378125
2.884,-0.0996875,0.0378125
2.885,-0.1,0.0378125
2.886,-0.100625,0.0378125
2.887,-0.1009375,0.0378125
2.888,-0.10125,0.0378125
2.889,-0.1021875,0.038125
2.89,-0.1025,0.038125
2.891,-0.1034375,0.038125
2.892,-0.10375,0.038125
2.893,-0.1046875,0.038125
2.894,-0.105625,0.0384375
2.895,-0.10625,0.0384375
2.896,-0.1071875,0.0384375
2.897,-0.108125,0.0384375
2.898,-0.10875,0.03875
2.899,-0.1096875,0.03875
2.9,-0.110625,0.03875
2.901,-0.1115625,0.03875
2.902,-0.1125,0.03875
2.903,-0.11375,0.0390625
2.904,-0.115,0.0390625
2.905,-0.11625,0.0390625
2.906,-0.1178125,0.0390625
2.907,-0.119375,0.0390625
2.908,-0.12125,0.0390625
2.909,-0.1234375,0.03875
2.91,-0.1259375,0.03875
2.911,-0.1290625,0.03875
2.912,-0.1325,0.03875
2.913,-0.1365625,0.03875
2.914,-0.1409375,0.03875
2.915,-0.1459375,0.03875
2.916,-0.15125,0.0384375
2.917,-0.1575,0.0384375
2.918,-0.1646875,0.038125
2.919,-0.1721875,0.038125
2.92,-0.18,0.038125
2.921,-0.1884375,0.0378125
2.922,-0.1975,0.0378125
2.923,-0.206875,0.0378125
2.924,-0.2165625,0.0375
2.925,-0.226875,0.0375
2.926,-0.2375,0.0371875
2.927,-0.24875,0.0371875
2.928,-0.260625,0.0371875
2.929,-0.2728125,0.036875
2.93,-0.285625,0.036875
2.931,-0.299375,0.0365625
2.932,-0.31375,0.0365625
2.933,-0.3290625,0.0365625
2.934,-0.345,0.03625
2.935,-0.361875,0.03625
2.936,-0.379375,0.0359375
2.937,-0.3978125,0.0359375
2.938,-0.416875,0.0359375
2.939,-0.4359375,0.035625
2.94,-0.455625,0.035625
2.941,-0.475625,0.0353125
2.942,-0.495,0.0353125
2.943,-0.514375,0.035
2.944,-0.53375,0.035
2.945,-0.5521875,0.035
2.946,-0.57,0.0346875
2.947,-0.5871875,0.0346875
2.948,-0.6034375,0.034375
2.949,-0.6190625,0.034375
2.95,-0.63375,0.034375
2.951,-0.6475,0.0340625
2.952,-0.6609375,0.0340625
2.953,-0.6734375,0.0340625
2.954,-0.685,0.0340625
2.955,-0.69625,0.03375
2.956,-0.7065625,0.03375
2.957,-0.71625,0.03375
2.958,-0.7253125,0.0334375
2.959,-0.733125,0.0334375
2.96,-0.7403125,0.0334375
2.961,-0.74625,0.033125
2.962,-0.7509375,0.033125
2.963,-0.7546875,0.033125
2.964,-0.7565625,0.0328125
2.965,-0.7571875,0.0328125
2.966,-0.7565625,0.0328125
2.967,-0.7540625,0.0328125
2.968,-0.7503125,0.0325
2.969,-0.745,0.0325
2.97,-0.7384375,0.0325
2.971,-0.730625,0.0325
2.972,-0.7215625,0.0325
2.973,-0.7115625,0.0325
2.974,-0.7003125,0.0321875
2.975,-0.68875,0.0321875
2.976,-0.6765625,0.0321875
2.977,-0.66375,0.0321875
2.978,-0.650625,0.0321875
2.979,-0.6375,0.0321875
2.98,-0.6240625,0.0321875
2.981,-0.610625,0.031875
2.982,-0.5975,0.031875
2.983,-0.584375,0.031875
2.984,-0.571875,0.031875
2.985,-0.5603125,0.031875
2.986,-0.54875,0.031875
2.987,-0.5375,0.0315625
2.988,-0.5275,0.0315625
2.989,-0.518125,0.0315625
2.99,-0.509375,0.0315625
2.991,-0.501875,0.0315625
2.992,-0.494375,0.03125
2.993,-0.488125,0.03125
2.994,-0.4828125,0.03125
2.995,-0.478125,0.03125
2.996,-0.474375,0.03125
2.997,-0.4715625,0.03125
2.998,-0.47,0.03125
2.999,-0.469375,0.03125
3,-0.47,0.03125
3.001,-0.471875,0.03125
3.002,-0.475,0.03125
3.003,-0.48,0.03125
3.004,-0.4865625,0.03125
3.005,-0.4946875,0.0315625
3.006,-0.5040625,0.0315625
3.007,-0.515,0.0315625
3.008,-0.5271875,0.0315625
3.009,-0.5409375,0.0315625
3.01,-0.555625,0.031875
3.011,-0.5709375,0.031875
3.012,-0.586875,0.031875
3.013,-0.603125,0.0321875
3.014,-0.6196875,0.0321875
3.015,-0.63625,0.0325
3.016,-0.6528125,0.0325
3.017,-0.6690625,0.0328125
3.018,-0.6846875,0.033125
3.019,-0.700625,0.033125
3.02,-0.71625,0.0334375
3.021,-0.731875,0.03375
3.022,-0.7475,0.03375
3.023,-0.7628125,0.0340625
3.024,-0.7784375,0.034375
3.025,-0.7946875,0.034375
3.026,-0.8109375,0.0346875
3.027,-0.8271875,0.035
3.028,-0.8434375,0.035
3.029,-0.8596875,0.035625
3.03,-0.8759375,0.035625
3.031,-0.8915625,0.0359375
3.032,-0.9065625,0.03625
3.033,-0.9203125,0.03625
3.034,-0.9334375,0.0365625
3.035,-0.945,0.036875
3.036,-0.9553125,0.036875
3.037,-0.9640625,0.0371875
3.038,-0.97125,0.0375
3.039,-0.976875,0.0375
3.04,-0.98125,0.0378125
3.041,-0.98375,0.038125
3.042,-0.9853125,0.038125
3.043,-0.9853125,0.0384375
3.044,-0.9840625,0.03875
3.045,-0.981875,0.03875
3.046,-0.97875,0.0390625
3.047,-0.974375,0.039375
3.048,-0.969375,0.039375
3.049,-0.963125,0.039375
3.05,-0.955625,0.0396875
3.051,-0.9471875,0.04
3.052,-0.9378125,0.04
3.053,-0.926875,0.0403125
3.054,-0.9146875,0.040625
3.055,-0.90125,0.040625
3.056,-0.8865625,0.0409375
3.057,-0.8703125,0.0409375
3.058,-0.8525,0.04125
3.059,-0.83375,0.0415625
3.06,-0.8140625,0.0415625
3.061,-0.7928125,0.041875
3.062,-0.770625,0.041875
3.063,-0.7478125,0.0421875
3.064,-0.7240625,0.0421875
3.065,-0.7003125,0.0425
3.066,-0.675625,0.0425
3.067,-0.6509375,0.0425
3.068,-0.62625,0.0428125
3.069,-0.6015625,0.0428125
3.07,-0.576875,0.043125
3.071,-0.5525,0.043125
3.072,-0.5284375,0.043125
3.073,-0.5046875,0.0434375
3.074,-0.48125,0.0434375
3.075,-0.45875,0.04375
3.076,-0.43625,0.04375
3.077,-0.414375,0.04375
3.078,-0.393125,0.0440625
3.079,-0.3721875,0.0440625
3.08,-0.3521875,0.0440625
3.081,-0.3328125,0.044375
3.082,-0.3134375,0.044375
3.083,-0.295,0.044375
3.084,-0.2775,0.044375
3.085,-0.2603125,0.0446875
3.086,-0.2440625,0.0446875
3.087,-0.228125,0.0446875
3.088,-0.213125,0.0446875
3.089,-0.1990625,0.0446875
3.09,-0.185625,0.045
3.091,-0.173125,0.045
3.092,-0.16125,0.045
3.093,-0.1503125,0.045
3.094,-0.14,0.045
3.095,-0.130625,0.0453125
3.096,-0.121875,0.0453125
3.097,-0.1140625,0.0453125
3.098,-0.106875,0.0453125
3.099,-0.1003125,0.0453125
3.1,-0.094375,0.045625
3.101,-0.08875,0.045625
3.102,-0.08375,0.045625
3.103,-0.0790625,0.045625
3.104,-0.0753125,0.045625
3.105,-0.0715625,0.045625
3.106,-0.068125,0.045625
3.107,-0.065,0.045625
3.108,-0.0621875,0.0459375
3.109,-0.0596875,0.0459375
3.11,-0.0575,0.0459375
3.111,-0.0559375,0.0459375
3.112,-0.0546875,0.0459375
3.113,-0.0534375,0.0459375
3.114,-0.0525,0.0459375
3.115,-0.051875,0.0459375
3.116,-0.0515625,0.0459375
3.117,-0.0515625,0.0459375
3.118,-0.051875,0.0459375
3.119,-0.0521875,0.04625
3.12,-0.0528125,0.04625
3.121,-0.0534375,0.04625
3.122,-0.054375,0.04625
3.123,-0.0553125,0.04625
3.124,-0.05625,0.04625
3.125,-0.0571875,0.04625
3.126,-0.0584375,0.04625
3.127,-0.0596875,0.04625
3.128,-0.060625,0.04625
3.129,-0.061875,0.04625
3.13,-0.0634375,0.04625
3.131,-0.0646875,0.04625
3.132,-0.0659375,0.04625
3.133,-0.0671875,0.04625
3.134,-0.06875,0.04625
3.135,-0.070625,0.0465625
3.136,-0.0721875,0.0465625
3.137,-0.074375,0.0465625
3.138,-0.0765625,0.0465625
3.139,-0.0784375,0.0465625
3.14,-0.0809375,0.0465625
3.141,-0.08375,0.0465625
3.142,-0.086875,0.0465625
3.143,-0.09,0.046875
3.144,-0.09375,0.046875
3.145,-0.0978125,0.046875
3.146,-0.1021875,0.046875
3.147,-0.1065625,0.046875
3.148,-0.1115625,0.046875
3.149,-0.116875,0.046875
3.15,-0.1221875,0.0471875
3.151,-0.1278125,0.0471875
3.152,-0.13375,0.0471875
3.153,-0.14,0.0471875
3.154,-0.14625,0.0471875
3.155,-0.1521875,0.0471875
3.156,-0.15875,0.0471875
3.157,-0.1653125,0.0471875
3.158,-0.1715625,0.0475
3.159,-0.1784375,0.0475
3.16,-0.185,0.0475
3.161,-0.1921875,0.0475
3.162,-0.19875,0.0475
3.163,-0.2059375,0.0475
3.164,-0.213125,0.0475
3.165,-0.220625,0.0475
3.166,-0.2284375,0.0478125
3.167,-0.23625,0.0478125
3.168,-0.2440625,0.0478125
3.169,-0.251875,0.0478125
3.17,-0.2596875,0.0475
3.171,-0.2675,0.0475
3.172,-0.275,0.0475
3.173,-0.2825,0.0475
3.174,-0.2896875,0.0475
3.175,-0.2965625,0.0475
3.176,-0.3028125,0.0475
3.177,-0.30875,0.0475
3.178,-0.314375,0.0475
3.179,-0.3196875,0.0475
3.18,-0.3246875,0.0471875
3.181,-0.329375,0.0471875
3.182,-0.33375,0.0471875
3.183,-0.3378125,0.046875
3.184,-0.341875,0.046875
3.185,-0.3459375,0.046875
3.186,-0.3496875,0.0465625
3.187,-0.35375,0.0465625
3.188,-0.3575,0.0465625
3.189,-0.36125,0.04625
3.19,-0.3653125,0.04625
3.191,-0.3690625,0.04625
3.192,-0.3725,0.0459375
3.193,-0.37625,0.0459375
3.194,-0.3796875,0.045625
3.195,-0.3828125,0.045625
3.196,-0.385625,0.045625
3.197,-0.3884375,0.0453125
3.198,-0.3909375,0.0453125
3.199,-0.3934375,0.0453125
3.2,-0.395,0.045
3.201,-0.396875,0.045
3.202,-0.398125,0.0446875
3.203,-0.399375,0.0446875
3.204,-0.4003125,0.0446875
3.205,-0.4009375,0.0446875
3.206,-0.401875,0.0446875
3.207,-0.4025,0.0446875
3.208,-0.4028125,0.044375
3.209,-0.403125,0.044375
3.21,-0.4034375,0.0446875
3.211,-0.40375,0.0446875
3.212,-0.40375,0.0446875
3.213,-0.4034375,0.0446875
3.214,-0.403125,0.0446875
3.215,-0.4028125,0.0446875
3.216,-0.401875,0.0446875
3.217,-0.4009375,0.0446875
3.218,-0.3996875,0.045
3.219,-0.3984375,0.045
3.22,-0.396875,0.045
3.221,-0.395,0.045
3.222,-0.3925,0.0453125
3.223,-0.39,0.0453125
3.224,-0.3875,0.0453125
3.225,-0.3846875,0.045625
3.226,-0.3815625,0.045625
3.227,-0.37875,0.045625
3.228,-0.3753125,0.045625
3.229,-0.3725,0.045625
3.23,-0.3690625,0.0459375
3.231,-0.36625,0.0459375
3.232,-0.363125,0.0459375
3.233,-0.360625,0.0459375
3.234,-0.358125,0.0459375
3.235,-0.355625,0.0459375
3.236,-0.3534375,0.0459375
3.237,-0.3515625,0.0459375
3.238,-0.349375,0.0459375
3.239,-0.348125,0.0459375
3.24,-0.34625,0.045625
3.241,-0.345,0.045625
3.242,-0.34375,0.045625
3.243,-0.3425,0.0453125
3.244,-0.34125,0.0453125
3.245,-0.34,0.0453125
3.246,-0.3390625,0.045
3.247,-0.338125,0.045
3.248,-0.3371875,0.0446875
3.249,-0.3365625,0.044375
3.25,-0.33625,0.0440625
3.251,-0.33625,0.0440625
3.252,-0.3365625,0.04375
3.253,-0.3371875,0.0434375
3.254,-0.3384375,0.0434375
3.255,-0.34,0.043125
3.256,-0.3421875,0.0428125
3.257,-0.3446875,0.0428125
3.258,-0.3475,0.0421875
3.259,-0.3509375,0.0421875
3.26,-0.354375,0.041875
3.261,-0.358125,0.0415625
3.262,-0.3621875,0.0415625
3.263,-0.36625,0.0409375
3.264,-0.3703125,0.0409375
3.265,-0.374375,0.040625
3.266,-0.37875,0.0403125
3.267,-0.3828125,0.0403125
3.268,-0.386875,0.04
3.269,-0.3909375,0.0396875
3.27,-0.3953125,0.0396875
3.271,-0.3996875,0.039375
3.272,-0.404375,0.039375
3.273,-0.4090625,0.039375
3.274,-0.4140625,0.0390625
3.275,-0.4196875,0.0390625
3.276,-0.425,0.03875
3.277,-0.43125,0.03875
3.278,-0.4375,0.03875
3.279,-0.444375,0.0384375
3.28,-0.4509375,0.0384375
3.281,-0.458125,0.0384375
3.282,-0.465,0.0384375
3.283,-0.4721875,0.0384375
3.284,-0.479375,0.0384375
3.285,-0.48625,0.0384375
3.286,-0.4934375,0.0384375
3.287,-0.500625,0.0384375
3.288,-0.5071875,0.0384375
3.289,-0.514375,0.03875
3.29,-0.5209375,0.03875
3.291,-0.528125,0.03875
3.292,-0.535,0.03875
3.293,-0.5425,0.0390625
3.294,-0.55,0.0390625
3.295,-0.5578125,0.0390625
3.296,-0.565625,0.039375
3.297,-0.5740625,0.039375
3.298,-0.5828125,0.039375
3.299,-0.5915625,0.0396875
3.3,-0.600625,0.0396875
3.301,-0.61,0.0396875
3.302,-0.6196875,0.0396875
3.303,-0.6290625,0.0396875
3.304,-0.63875,0.0396875
3.305,-0.6484375,0.04
3.306,-0.658125,0.04
3.307,-0.6678125,0.04
3.308,-0.6775,0.04
3.309,-0.6871875,0.04
3.31,-0.696875,0.04
3.311,-0.706875,0.04
3.312,-0.716875,0.0403125
3.313,-0.726875,0.0403125
3.314,-0.7371875,0.0403125
3.315,-0.7478125,0.0403125
3.316,-0.758125,0.04
3.317,-0.7690625,0.04
3.318,-0.779375,0.04
3.319,-0.7903125,0.04
3.32,-0.80125,0.04
3.321,-0.81125,0.04
3.322,-0.821875,0.04
3.323,-0.831875,0.04
3.324,-0.8415625,0.04
3.325,-0.85125,0.04
3.326,-0.86,0.04
3.327,-0.86875,0.0396875
3.328,-0.8775,0.0396875
3.329,-0.8853125,0.0396875
3.33,-0.89375,0.0396875
3.331,-0.9015625,0.0396875
3.332,-0.909375,0.0396875
3.333,-0.9171875,0.039375
3.334,-0.9246875,0.039375
3.335,-0.9325,0.039375
3.336,-0.9403125,0.039375
3.337,-0.9478125,0.039375
3.338,-0.9553125,0.0390625
3.339,-0.9625,0.0390625
3.34,-0.9696875,0.0390625
3.341,-0.97625,0.03875
3.342,-0.9825,0.03875
3.343,-0.988125,0.03875
3.344,-0.993125,0.0384375
3.345,-0.9978125,0.0384375
3.346,-1.001875,0.0384375
3.347,-1.005313,0.0384375
3.348,-1.008125,0.038125
3.349,-1.010625,0.038125
3.35,-1.012813,0.038125
3.351,-1.014688,0.038125
3.352,-1.01625,0.038125
3.353,-1.017813,0.0378125
3.354,-1.019375,0.0378125
3.355,-1.02125,0.0378125
3.356,-1.022813,0.0378125
3.357,-1.024688,0.0378125
3.358,-1.02625,0.0375
3.359,-1.028125,0.0375
3.36,-1.029688,0.0375
3.361,-1.031562,0.0375
3.362,-1.032812,0.0371875
3.363,-1.034063,0.0371875
3.364,-1.035313,0.0371875
3.365,-1.035938,0.0371875
3.366,-1.036563,0.0371875
3.367,-1.037187,0.0371875
3.368,-1.0375,0.0371875
3.369,-1.037813,0.036875
3.37,-1.038125,0.036875
3.371,-1.039063,0.036875
3.372,-1.04,0.036875
3.373,-1.04125,0.036875
3.374,-1.043438,0.036875
3.375,-1.045938,0.036875
3.376,-1.04875,0.036875
3.377,-1.0525,0.036875
3.378,-1.056563,0.0365625
3.379,-1.060625,0.0365625
3.38,-1.065625,0.03625
3.381,-1.070625,0.03625
3.382,-1.075625,0.03625
3.383,-1.080938,0.0359375
3.384,-1.08625,0.0359375
3.385,-1.09125,0.035625
3.386,-1.096563,0.035625
3.387,-1.101563,0.0353125
3.388,-1.106563,0.0353125
3.389,-1.111875,0.035
3.39,-1.117188,0.035
3.391,-1.122813,0.0346875
3.392,-1.128125,0.034375
3.393,-1.134063,0.034375
3.394,-1.140313,0.0340625
3.395,-1.146562,0.0340625
3.396,-1.153125,0.03375
3.397,-1.160313,0.0334375
3.398,-1.166875,0.0334375
3.399,-1.17375,0.033125
3.4,-1.180625,0.0328125
3.401,-1.187188,0.0328125
3.402,-1.193437,0.0321875
3.403,-1.199375,0.0321875
3.404,-1.204688,0.031875
3.405,-1.209688,0.031875
3.406,-1.214375,0.0315625
3.407,-1.218438,0.03125
3.408,-1.222188,0.03125
3.409,-1.225938,0.0309375
3.41,-1.229375,0.030625
3.411,-1.233125,0.030625
3.412,-1.236563,0.0303125
3.413,-1.240312,0.0303125
3.414,-1.244063,0.03
3.415,-1.248125,0.03
3.416,-1.2525,0.03
3.417,-1.256875,0.0296875
3.418,-1.261562,0.0296875
3.419,-1.265937,0.0296875
3.42,-1.27,0.029375
3.421,-1.274063,0.029375
3.422,-1.277813,0.029375
3.423,-1.280938,0.029375
3.424,-1.283438,0.0290625
3.425,-1.285625,0.0290625
3.426,-1.287187,0.0290625
3.427,-1.288438,0.0290625
3.428,-1.289375,0.0290625
3.429,-1.289688,0.0290625
3.43,-1.29,0.0290625
3.431,-1.290313,0.0290625
3.432,-1.290625,0.0290625
3.433,-1.290938,0.0290625
3.434,-1.29125,0.029375
3.435,-1.291875,0.029375
3.436,-1.292812,0.029375
3.437,-1.29375,0.029375
3.438,-1.294688,0.029375
3.439,-1.295313,0.029375
3.44,-1.29625,0.029375
3.441,-1.296563,0.029375
3.442,-1.296563,0.0296875
3.443,-1.29625,0.0296875
3.444,-1.295625,0.0296875
3.445,-1.294375,0.0296875
3.446,-1.292812,0.0296875
3.447,-1.290313,0.03
3.448,-1.288125,0.03
3.449,-1.285625,0.03
3.45,-1.282813,0.03
3.451,-1.280313,0.03
3.452,-1.277813,0.0303125
3.453,-1.275625,0.0303125
3.454,-1.274063,0.0303125
3.455,-1.272813,0.0303125
3.456,-1.271875,0.0303125
3.457,-1.27125,0.0303125
3.458,-1.27125,0.0303125
3.459,-1.271562,0.0303125
3.46,-1.272188,0.0303125
3.461,-1.272813,0.0303125
3.462,-1.27375,0.0303125
3.463,-1.274688,0.0303125
3.464,-1.275,0.0303125
3.465,-1.275937,0.0303125
3.466,-1.27625,0.0303125
3.467,-1.276563,0.030625
3.468,-1.276875,0.030625
3.469,-1.277187,0.030625
3.47,-1.277187,0.030625
3.471,-1.2775,0.030625
3.472,-1.277813,0.030625
3.473,-1.278125,0.0303125
3.474,-1.27875,0.0303125
3.475,-1.279688,0.0303125
3.476,-1.280938,0.0303125
3.477,-1.282188,0.0303125
3.478,-1.283438,0.0303125
3.479,-1.285313,0.0303125
3.48,-1.286563,0.0303125
3.481,-1.288125,0.0303125
3.482,-1.289375,0.0303125
3.483,-1.290625,0.0303125
3.484,-1.29125,0.0303125
3.485,-1.291875,0.0303125
3.486,-1.292188,0.0303125
3.487,-1.292188,0.0303125
3.488,-1.291875,0.0303125
3.489,-1.29125,0.03
3.49,-1.290313,0.03
3.491,-1.289688,0.03
3.492,-1.288438,0.03
3.493,-1.2875,0.03
3.494,-1.286563,0.03
3.495,-1.285625,0.03
3.496,-1.285,0.0296875
3.497,-1.284063,0.0296875
3.498,-1.28375,0.0296875
3.499,-1.283438,0.0296875
3.5,-1.283125,0.029375
3.501,-1.282813,0.029375
3.502,-1.282813,0.029375
3.503,-1.282813,0.029375
3.504,-1.2825,0.0290625
3.505,-1.2825,0.0290625
3.506,-1.282188,0.0290625
3.507,-1.282188,0.0290625
3.508,-1.281562,0.0290625
3.509,-1.281562,0.02875
3.51,-1.281562,0.02875
3.511,-1.281562,0.02875
3.512,-1.281562,0.02875
3.513,-1.281875,0.02875
3.514,-1.282188,0.02875
3.515,-1.283125,0.02875
3.516,-1.28375,0.0284375
3.517,-1.285,0.0284375
3.518,-1.285625,0.0284375
3.519,-1.286875,0.0284375
3.52,-1.288125,0.0284375
3.521,-1.289063,0.0284375
3.522,-1.29,0.0284375
3.523,-1.290938,0.0284375
3.524,-1.29125,0.0284375
3.525,-1.291875,0.0284375
3.526,-1.2925,0.0284375
3.527,-1.2925,0.0284375
3.528,-1.292812,0.0284375
3.529,-1.293438,0.0284375
3.53,-1.293438,0.0284375
3.531,-1.294063,0.0284375
3.532,-1.294375,0.02875
3.533,-1.295313,0.02875
3.534,-1.295938,0.02875
3.535,-1.297187,0.02875
3.536,-1.298438,0.02875
3.537,-1.299688,0.02875
3.538,-1.300938,0.02875
3.539,-1.302188,0.02875
3.54,-1.30375,0.02875
3.541,-1.305,0.02875
3.542,-1.30625,0.02875
3.543,-1.307187,0.02875
3.544,-1.308125,0.02875
3.545,-1.309063,0.0290625
3.546,-1.309688,0.0290625
3.547,-1.31,0.0290625
3.548,-1.310625,0.0290625
3.549,-1.310938,0.0290625
3.55,-1.311563,0.0290625
3.551,-1.312188,0.0290625
3.552,-1.313125,0.0290625
3.553,-1.314063,0.029375
3.554,-1.315313,0.029375
3.555,-1.317188,0.029375
3.556,-1.31875,0.029375
3.557,-1.320625,0.029375
3.558,-1.322812,0.029375
3.559,-1.325,0.029375
3.56,-1.327188,0.029375
3.561,-1.329375,0.029375
3.562,-1.331563,0.029375
3.563,-1.333125,0.029375
3.564,-1.334688,0.029375
3.565,-1.335938,0.029375
3.566,-1.337188,0.029375
3.567,-1.338437,0.029375
3.568,-1.339063,0.029375
3.569,-1.340313,0.029375
3.57,-1.340938,0.029375
3.571,-1.342188,0.029375
3.572,-1.343438,0.029375
3.573,-1.345,0.029375
3.574,-1.346563,0.029375
3.575,-1.348438,0.0290625
3.576,-1.350625,0.0290625
3.577,-1.353125,0.0290625
3.578,-1.355938,0.0290625
3.579,-1.35875,0.0290625
3.58,-1.361563,0.02875
3.581,-1.364375,0.02875
3.582,-1.367188,0.02875
3.583,-1.369687,0.0284375
3.584,-1.371875,0.0284375
3.585,-1.374063,0.028125
3.586,-1.37625,0.028125
3.587,-1.377813,0.028125
3.588,-1.379375,0.028125
3.589,-1.380625,0.0278125
3.59,-1.381875,0.0278125
3.591,-1.383125,0.0275
3.592,-1.384375,0.0275
3.593,-1.385312,0.0275
3.594,-1.386562,0.0275
3.595,-1.3875,0.0271875
3.596,-1.38875,0.0271875
3.597,-1.39,0.026875
3.598,-1.39125,0.026875
3.599,-1.392188,0.026875
3.6,-1.393125,0.0265625
3.601,-1.39375,0.0265625
3.602,-1.394063,0.0265625
3.603,-1.394063,0.0265625
3.604,-1.394063,0.0265625
3.605,-1.393125,0.02625
3.606,-1.391875,0.02625
3.607,-1.390313,0.02625
3.608,-1.38875,0.02625
3.609,-1.386562,0.02625
3.61,-1.384063,0.02625
3.611,-1.381563,0.02625
3.612,-1.379063,0.02625
3.613,-1.37625,0.0265625
3.614,-1.373438,0.0265625
3.615,-1.370937,0.0265625
3.616,-1.368125,0.0265625
3.617,-1.365625,0.0265625
3.618,-1.363125,0.0265625
3.619,-1.360938,0.0265625
3.62,-1.35875,0.0265625
3.621,-1.35625,0.0265625
3.622,-1.35375,0.026875
3.623,-1.351563,0.026875
3.624,-1.349375,0.026875
3.625,-1.347188,0.0271875
3.626,-1.345,0.0271875
3.627,-1.342813,0.0271875
3.628,-1.340625,0.0275
3.629,-1.33875,0.0275
3.63,-1.337188,0.0278125
3.631,-1.335313,0.0278125
3.632,-1.334062,0.028125
3.633,-1.332813,0.0284375
3.634,-1.332188,0.0284375
3.635,-1.331563,0.0284375
3.636,-1.33125,0.02875
3.637,-1.330938,0.02875
3.638,-1.33125,0.0290625
3.639,-1.331563,0.029375
3.64,-1.331875,0.0296875
3.641,-1.332813,0.0296875
3.642,-1.333125,0.03
3.643,-1.334062,0.0303125
3.644,-1.334375,0.0303125
3.645,-1.335,0.0309375
3.646,-1.335938,0.0309375
3.647,-1.33625,0.03125
3.648,-1.337188,0.0315625
3.649,-1.3375,0.031875
3.65,-1.337813,0.0321875
3.651,-1.33875,0.0325
3.652,-1.33875,0.0328125
3.653,-1.339375,0.033125
3.654,-1.339687,0.0334375
3.655,-1.34,0.03375
3.656,-1.340313,0.0340625
3.657,-1.340313,0.034375
3.658,-1.340313,0.034375
3.659,-1.34,0.035
3.66,-1.339375,0.035
3.661,-1.33875,0.0353125
3.662,-1.3375,0.0359375
3.663,-1.335938,0.0359375
3.664,-1.334375,0.03625
3.665,-1.3325,0.0365625
3.666,-1.330313,0.036875
3.667,-1.327813,0.0371875
3.668,-1.325,0.0371875
3.669,-1.3225,0.0375
3.67,-1.319375,0.038125
3.671,-1.316563,0.038125
3.672,-1.314063,0.0384375
3.673,-1.31125,0.03875
3.674,-1.30875,0.03875
3.675,-1.30625,0.0390625
3.676,-1.30375,0.039375
3.677,-1.301875,0.039375
3.678,-1.299688,0.0396875
3.679,-1.2975,0.04
3.68,-1.295625,0.04
3.681,-1.294063,0.0403125
3.682,-1.292188,0.040625
3.683,-1.290625,0.040625
3.684,-1.288438,0.0409375
3.685,-1.286875,0.0409375
3.686,-1.285,0.04125
3.687,-1.282813,0.0415625
3.688,-1.28125,0.041875
3.689,-1.279688,0.041875
3.69,-1.278125,0.041875
3.691,-1.276875,0.0421875
3.692,-1.275625,0.0425
3.693,-1.275,0.0425
3.694,-1.274063,0.0428125
3.695,-1.27375,0.043125
3.696,-1.273438,0.043125
3.697,-1.273438,0.0434375
3.698,-1.27375,0.04375
3.699,-1.27375,0.04375
3.7,-1.274375,0.0440625
3.701,-1.274375,0.0440625
3.702,-1.274688,0.044375
3.703,-1.274688,0.0446875
3.704,-1.274375,0.0446875
3.705,-1.274063,0.045
3.706,-1.27375,0.045
3.707,-1.273438,0.0453125
3.708,-1.2725,0.0453125
3.709,-1.272188,0.045625
3.71,-1.27125,0.045625
3.711,-1.270938,0.045625
3.712,-1.270313,0.0459375
3.713,-1.27,0.0459375
3.714,-1.27,0.0459375
3.715,-1.27,0.0459375
3.716,-1.270313,0.0459375
3.717,-1.27125,0.0459375
3.718,-1.271875,0.0459375
3.719,-1.273125,0.0459375
3.72,-1.274688,0.0459375
3.721,-1.27625,0.0459375
3.722,-1.278125,0.0459375
3.723,-1.279688,0.0459375
3.724,-1.281562,0.0459375
3.725,-1.284063,0.0459375
3.726,-1.28625,0.045625
3.727,-1.28875,0.045625
3.728,-1.291562,0.045625
3.729,-1.294375,0.0453125
3.73,-1.297813,0.0453125
3.731,-1.300938,0.0453125
3.732,-1.304688,0.045
3.733,-1.30875,0.045
3.734,-1.312812,0.0446875
3.735,-1.317188,0.044375
3.736,-1.321875,0.044375
3.737,-1.326875,0.0440625
3.738,-1.331875,0.04375
3.739,-1.336875,0.04375
3.74,-1.341875,0.043125
3.741,-1.347188,0.043125
3.742,-1.351875,0.0428125
3.743,-1.356875,0.0425
3.744,-1.361563,0.0425
3.745,-1.36625,0.041875
3.746,-1.370937,0.041875
3.747,-1.375,0.0415625
3.748,-1.379063,0.04125
3.749,-1.383438,0.04125
3.75,-1.387188,0.0409375
3.751,-1.391563,0.040625
3.752,-1.395313,0.040625
3.753,-1.399688,0.04
3.754,-1.40375,0.04
3.755,-1.408438,0.0396875
3.756,-1.413125,0.039375
3.757,-1.417812,0.039375
3.758,-1.4225,0.03875
3.759,-1.4275,0.0384375
3.76,-1.432813,0.038125
3.761,-1.438125,0.038125
3.762,-1.443437,0.0378125
3.763,-1.449062,0.0375
3.764,-1.454688,0.0371875
3.765,-1.46,0.0371875
3.766,-1.465313,0.0365625
3.767,-1.470938,0.0365625
3.768,-1.47625,0.03625
3.769,-1.48125,0.0359375
3.77,-1.486563,0.0359375
3.771,-1.491563,0.0353125
3.772,-1.496563,0.0353125
3.773,-1.50125,0.035
3.774,-1.50625,0.0346875
3.775,-1.510938,0.0346875
3.776,-1.515,0.0340625
3.777,-1.519063,0.0340625
3.778,-1.523125,0.03375
3.779,-1.526875,0.0334375
3.78,-1.53,0.033125
3.781,-1.533438,0.033125
3.782,-1.535938,0.0325
3.783,-1.538125,0.0325
3.784,-1.539688,0.0321875
3.785,-1.540938,0.031875
3.786,-1.541562,0.031875
3.787,-1.541562,0.0315625
3.788,-1.54125,0.03125
3.789,-1.54,0.03125
3.79,-1.53875,0.0309375
3.791,-1.536563,0.030625
3.792,-1.534063,0.030625
3.793,-1.53125,0.0303125
3.794,-1.527813,0.0303125
3.795,-1.524063,0.03
3.796,-1.519688,0.0296875
3.797,-1.515625,0.029375
3.798,-1.510625,0.029375
3.799,-1.505625,0.0290625
3.8,-1.500625,0.0290625
3.801,-1.495313,0.02875
3.802,-1.49,0.0284375
3.803,-1.484687,0.0284375
3.804,-1.479062,0.028125
3.805,-1.47375,0.028125
3.806,-1.468125,0.0278125
3.807,-1.463125,0.0278125
3.808,-1.458125,0.0278125
3.809,-1.453437,0.0275
3.81,-1.449062,0.0275
3.811,-1.445,0.0271875
3.812,-1.440938,0.0271875
3.813,-1.437188,0.0271875
3.814,-1.434375,0.026875
3.815,-1.43125,0.026875
3.816,-1.42875,0.026875
3.817,-1.426875,0.0265625
3.818,-1.424688,0.0265625
3.819,-1.423438,0.0265625
3.82,-1.422187,0.0265625
3.821,-1.42125,0.02625
3.822,-1.420313,0.02625
3.823,-1.42,0.02625
3.824,-1.419375,0.02625
3.825,-1.419375,0.02625
3.826,-1.419375,0.02625
3.827,-1.419688,0.02625
3.828,-1.42,0.02625
3.829,-1.420938,0.02625
3.83,-1.421563,0.02625
3.831,-1.422813,0.02625
3.832,-1.424063,0.02625
3.833,-1.425625,0.0259375
3.834,-1.427188,0.0259375
3.835,-1.42875,0.0259375
3.836,-1.430313,0.0259375
3.837,-1.431875,0.0259375
3.838,-1.433437,0.0259375
3.839,-1.434688,0.0259375
3.84,-1.435938,0.0259375
3.841,-1.43625,0.0259375
3.842,-1.436875,0.0259375
3.843,-1.436875,0.0259375
3.844,-1.435938,0.0259375
3.845,-1.435625,0.0259375
3.846,-1.434375,0.0259375
3.847,-1.432813,0.0259375
3.848,-1.43125,0.0259375
3.849,-1.429063,0.0259375
3.85,-1.4275,0.0259375
3.851,-1.425313,0.0259375
3.852,-1.423438,0.0259375
3.853,-1.42125,0.0259375
3.854,-1.419375,0.0259375
3.855,-1.417812,0.0259375
3.856,-1.415938,0.0259375
3.857,-1.414375,0.0259375
3.858,-1.413125,0.02625
3.859,-1.411875,0.02625
3.86,-1.410625,0.02625
3.861,-1.409688,0.02625
3.862,-1.409063,0.02625
3.863,-1.408125,0.02625
3.864,-1.4075,0.02625
3.865,-1.407188,0.02625
3.866,-1.406875,0.02625
3.867,-1.406875,0.02625
3.868,-1.407188,0.0265625
3.869,-1.407813,0.0265625
3.87,-1.408438,0.0265625
3.871,-1.409688,0.0265625
3.872,-1.41125,0.026875
3.873,-1.412813,0.026875
3.874,-1.415,0.026875
3.875,-1.417188,0.026875
3.876,-1.42,0.026875
3.877,-1.422813,0.0271875
3.878,-1.425938,0.0271875
3.879,-1.429063,0.0271875
3.88,-1.432187,0.0271875
3.881,-1.435313,0.0271875
3.882,-1.438125,0.0275
3.883,-1.44125,0.0275
3.884,-1.44375,0.0275
3.885,-1.44625,0.0275
3.886,-1.44875,0.0278125
3.887,-1.450938,0.0278125
3.888,-1.452813,0.0278125
3.889,-1.454688,0.028125
3.89,-1.456563,0.028125
3.891,-1.458125,0.028125
3.892,-1.459688,0.028125
3.893,-1.460938,0.028125
3.894,-1.462813,0.0284375
3.895,-1.464375,0.0284375
3.896,-1.465938,0.0284375
3.897,-1.468125,0.0284375
3.898,-1.469688,0.0284375
3.899,-1.471875,0.0284375
3.9,-1.474063,0.0284375
3.901,-1.47625,0.028125
3.902,-1.47875,0.028125
3.903,-1.48125,0.028125
3.904,-1.484063,0.028125
3.905,-1.487188,0.028125
3.906,-1.490312,0.028125
3.907,-1.494063,0.028125
3.908,-1.4975,0.028125
3.909,-1.501875,0.028125
3.91,-1.505937,0.028125
3.911,-1.510625,0.028125
3.912,-1.515313,0.028125
3.913,-1.520625,0.0278125
3.914,-1.52625,0.0278125
3.915,-1.531562,0.0278125
3.916,-1.5375,0.0278125
3.917,-1.543438,0.0278125
3.918,-1.549375,0.0275
3.919,-1.555625,0.0275
3.92,-1.561563,0.0275
3.921,-1.5675,0.0275
3.922,-1.572812,0.0275
3.923,-1.578437,0.0271875
3.924,-1.583438,0.0271875
3.925,-1.587813,0.0271875
3.926,-1.591875,0.0271875
3.927,-1.595313,0.0271875
3.928,-1.598125,0.0271875
3.929,-1.600938,0.0271875
3.93,-1.6025,0.0271875
3.931,-1.604062,0.0275
3.932,-1.605,0.0275
3.933,-1.605625,0.0275
3.934,-1.605625,0.0275
3.935,-1.605,0.0275
3.936,-1.604375,0.0275
3.937,-1.603125,0.0275
3.938,-1.601563,0.0275
3.939,-1.599375,0.0275
3.94,-1.5975,0.0275
3.941,-1.595,0.0275
3.942,-1.592188,0.0275
3.943,-1.589063,0.0275
3.944,-1.585938,0.0278125
3.945,-1.5825,0.0278125
3.946,-1.579063,0.0278125
3.947,-1.575313,0.0278125
3.948,-1.571875,0.0278125
3.949,-1.568437,0.028125
3.95,-1.565,0.028125
3.951,-1.561563,0.028125
3.952,-1.55875,0.028125
3.953,-1.555938,0.028125
3.954,-1.553438,0.028125
3.955,-1.550938,0.028125
3.956,-1.549375,0.028125
3.957,-1.5475,0.028125
3.958,-1.54625,0.028125
3.959,-1.545313,0.028125
3.96,-1.544375,0.028125
3.961,-1.543438,0.028125
3.962,-1.543125,0.0278125
3.963,-1.542813,0.0278125
3.964,-1.542188,0.0278125
3.965,-1.541562,0.0278125
3.966,-1.540938,0.0278125
3.967,-1.54,0.0275
3.968,-1.539063,0.0275
3.969,-1.538125,0.0275
3.97,-1.536875,0.0275
3.971,-1.535313,0.0275
3.972,-1.533125,0.0271875
3.973,-1.530938,0.0271875
3.974,-1.528438,0.0271875
3.975,-1.525625,0.0271875
3.976,-1.5225,0.0271875
3.977,-1.519375,0.026875
3.978,-1.515937,0.026875
3.979,-1.5125,0.026875
3.98,-1.50875,0.026875
3.981,-1.505,0.026875
3.982,-1.50125,0.026875
3.983,-1.496875,0.026875
3.984,-1.493125,0.026875
3.985,-1.48875,0.026875
3.986,-1.484687,0.026875
3.987,-1.480625,0.026875
3.988,-1.47625,0.026875
3.989,-1.472188,0.026875
3.99,-1.468125,0.026875
3.991,-1.46375,0.0271875
3.992,-1.459062,0.0271875
3.993,-1.455,0.0275
3.994,-1.450625,0.0275
3.995,-1.446563,0.0275
3.996,-1.4425,0.0278125
3.997,-1.439063,0.0278125
3.998,-1.435625,0.028125
3.999,-1.4325,0.0284375
4,-1.429688,0.0284375
4.001,-1.4275,0.0290625
4.002,-1.425625,0.0290625
4.003,-1.424375,0.029375
4.004,-1.42375,0.0296875
4.005,-1.42375,0.03
4.006,-1.424688,0.0303125
4.007,-1.425625,0.030625
4.008,-1.427188,0.03125
4.009,-1.429063,0.03125
4.01,-1.431563,0.031875
4.011,-1.434375,0.031875
4.012,-1.4375,0.0325
4.013,-1.440938,0.0328125
4.014,-1.444375,0.033125
4.015,-1.448125,0.0334375
4.016,-1.452188,0.03375
4.017,-1.455938,0.0340625
4.018,-1.46,0.034375
4.019,-1.464063,0.0346875
4.02,-1.468125,0.035
4.021,-1.472188,0.0353125
4.022,-1.47625,0.0353125
4.023,-1.480625,0.0359375
4.024,-1.484687,0.0359375
4.025,-1.48875,0.03625
4.026,-1.493438,0.0365625
4.027,-1.4975,0.0365625
4.028,-1.502188,0.036875
4.029,-1.506875,0.036875
4.03,-1.51125,0.036875
4.031,-1.515937,0.0371875
4.032,-1.520625,0.0371875
4.033,-1.525625,0.0371875
4.034,-1.530313,0.0371875
4.035,-1.535313,0.0371875
4.036,-1.54,0.0371875
4.037,-1.544688,0.0371875
4.038,-1.549375,0.0371875
4.039,-1.553438,0.0371875
4.04,-1.5575,0.036875
4.041,-1.56125,0.036875
4.042,-1.564688,0.036875
4.043,-1.5675,0.0365625
4.044,-1.57,0.0365625
4.045,-1.5725,0.0365625
4.046,-1.574688,0.03625
4.047,-1.575938,0.03625
4.048,-1.5775,0.0359375
4.049,-1.578437,0.0359375
4.05,-1.579688,0.0359375
4.051,-1.580313,0.035625
4.052,-1.58125,0.035625
4.053,-1.582188,0.035625
4.054,-1.582813,0.035625
4.055,-1.58375,0.035625
4.056,-1.584375,0.0353125
4.057,-1.585313,0.0353125
4.058,-1.585625,0.0353125
4.059,-1.585625,0.0353125
4.06,-1.585625,0.0353125
4.061,-1.585,0.0353125
4.062,-1.584062,0.0353125
4.063,-1.5825,0.0353125
4.064,-1.580313,0.0353125
4.065,-1.577813,0.0353125
4.066,-1.574375,0.035625
4.067,-1.570625,0.035625
4.068,-1.566563,0.035625
4.069,-1.561875,0.035625
4.07,-1.556875,0.0359375
4.071,-1.551875,0.0359375
4.072,-1.546563,0.0359375
4.073,-1.540938,0.03625
4.074,-1.535938,0.03625
4.075,-1.530938,0.03625
4.076,-1.52625,0.03625
4.077,-1.521562,0.0365625
4.078,-1.5175,0.0365625
4.079,-1.513125,0.0365625
4.08,-1.509375,0.036875
4.081,-1.505937,0.036875
4.082,-1.5025,0.036875
4.083,-1.499375,0.036875
4.084,-1.49625,0.036875
4.085,-1.493438,0.036875
4.086,-1.490938,0.036875
4.087,-1.488438,0.0371875
4.088,-1.48625,0.0371875
4.089,-1.484687,0.0371875
4.09,-1.483438,0.0371875
4.091,-1.482813,0.0371875
4.092,-1.4825,0.0371875
4.093,-1.483125,0.036875
4.094,-1.484063,0.036875
4.095,-1.485625,0.036875
4.096,-1.487813,0.036875
4.097,-1.490625,0.036875
4.098,-1.494375,0.036875
4.099,-1.498125,0.036875
4.1,-1.502813,0.036875
4.101,-1.507813,0.0365625
4.102,-1.512813,0.0365625
4.103,-1.518438,0.0365625
4.104,-1.52375,0.03625
4.105,-1.529688,0.03625
4.106,-1.535,0.03625
4.107,-1.540938,0.03625
4.108,-1.54625,0.0359375
4.109,-1.551563,0.0359375
4.11,-1.557187,0.0359375
4.111,-1.562188,0.035625
4.112,-1.567188,0.035625
4.113,-1.5725,0.035625
4.114,-1.5775,0.0353125
4.115,-1.5825,0.0353125
4.116,-1.5875,0.035
4.117,-1.5925,0.035
4.118,-1.5975,0.035
4.119,-1.6025,0.0346875
4.12,-1.6075,0.0346875
4.121,-1.6125,0.0346875
4.122,-1.6175,0.034375
4.123,-1.622188,0.034375
4.124,-1.626563,0.0340625
4.125,-1.63125,0.03375
4.126,-1.635625,0.03375
4.127,-1.639688,0.03375
4.128,-1.64375,0.0334375
4.129,-1.6475,0.0334375
4.13,-1.65125,0.033125
4.131,-1.655,0.033125
4.132,-1.65875,0.0328125
4.133,-1.662187,0.0328125
4.134,-1.665938,0.0325
4.135,-1.67,0.0325
4.136,-1.674063,0.0321875
4.137,-1.678125,0.0321875
4.138,-1.6825,0.031875
4.139,-1.687188,0.031875
4.14,-1.691875,0.0315625
4.141,-1.696875,0.0315625
4.142,-1.701875,0.03125
4.143,-1.706875,0.03125
4.144,-1.7125,0.03125
4.145,-1.717813,0.0309375
4.146,-1.723438,0.030625
4.147,-1.72875,0.030625
4.148,-1.734063,0.030625
4.149,-1.739688,0.0303125
4.15,-1.745,0.0303125
4.151,-1.750312,0.03
4.152,-1.755625,0.03
4.153,-1.760625,0.03
4.154,-1.765625,0.0296875
4.155,-1.770313,0.0296875
4.156,-1.774688,0.029375
4.157,-1.779063,0.029375
4.158,-1.782813,0.029375
4.159,-1.78625,0.0290625
4.16,-1.789688,0.0290625
4.161,-1.7925,0.0290625
4.162,-1.794688,0.02875
4.163,-1.796875,0.02875
4.164,-1.798125,0.02875
4.165,-1.799063,0.0284375
4.166,-1.799375,0.0284375
4.167,-1.799063,0.0284375
4.168,-1.798438,0.0284375
4.169,-1.797187,0.028125
4.17,-1.795625,0.028125
4.171,-1.793438,0.028125
4.172,-1.790938,0.028125
4.173,-1.787813,0.028125
4.174,-1.784375,0.0278125
4.175,-1.780625,0.0278125
4.176,-1.775937,0.0278125
4.177,-1.77125,0.0278125
4.178,-1.76625,0.0278125
4.179,-1.760938,0.0278125
4.18,-1.755625,0.0278125
4.181,-1.749375,0.0278125
4.182,-1.743125,0.0275
4.183,-1.736563,0.0275
4.184,-1.73,0.0275
4.185,-1.723438,0.0275
4.186,-1.716563,0.0278125
4.187,-1.71,0.0278125
4.188,-1.703437,0.0278125
4.189,-1.6975,0.0278125
4.19,-1.691563,0.0278125
4.191,-1.685938,0.0278125
4.192,-1.680625,0.0278125
4.193,-1.675938,0.0278125
4.194,-1.671563,0.0278125
4.195,-1.667813,0.0278125
4.196,-1.664375,0.0278125
4.197,-1.661563,0.028125
4.198,-1.659063,0.028125
4.199,-1.656562,0.028125
4.2,-1.655,0.028125
4.201,-1.653125,0.028125
4.202,-1.651875,0.0284375
4.203,-1.650625,0.0284375
4.204,-1.649375,0.0284375
4.205,-1.64875,0.0284375
4.206,-1.647813,0.02875
4.207,-1.6475,0.02875
4.208,-1.646875,0.02875
4.209,-1.646875,0.0290625
4.21,-1.646875,0.0290625
4.211,-1.646875,0.0290625
4.212,-1.6475,0.029375
4.213,-1.648125,0.029375
4.214,-1.649063,0.029375
4.215,-1.650313,0.0296875
4.216,-1.651563,0.0296875
4.217,-1.652813,0.0296875
4.218,-1.654063,0.0296875
4.219,-1.655938,0.0296875
4.22,-1.657188,0.03
4.221,-1.65875,0.03
4.222,-1.66,0.03
4.223,-1.660938,0.03
4.224,-1.662187,0.03
4.225,-1.663125,0.03
4.226,-1.664063,0.03
4.227,-1.664688,0.03
4.228,-1.665,0.0303125
4.229,-1.665938,0.0303125
4.23,-1.66625,0.0303125
4.231,-1.667188,0.0303125
4.232,-1.667813,0.03
4.233,-1.66875,0.03
4.234,-1.67,0.03
4.235,-1.67125,0.03
4.236,-1.6725,0.03
4.237,-1.67375,0.03
4.238,-1.675313,0.03
4.239,-1.676875,0.03
4.24,-1.678438,0.03
4.241,-1.679688,0.0296875
4.242,-1.680938,0.0296875
4.243,-1.681875,0.0296875
4.244,-1.6825,0.029375
4.245,-1.683125,0.029375
4.246,-1.683438,0.029375
4.247,-1.683438,0.029375
4.248,-1.683438,0.0290625
4.249,-1.683438,0.0290625
4.25,-1.683125,0.02875
4.251,-1.6825,0.02875
4.252,-1.682187,0.02875
4.253,-1.681563,0.0284375
4.254,-1.68125,0.0284375
4.255,-1.680625,0.0284375
4.256,-1.680313,0.028125
4.257,-1.679688,0.028125
4.258,-1.679375,0.0278125
4.259,-1.67875,0.0275
4.26,-1.678438,0.0275
4.261,-1.6775,0.0275
4.262,-1.676875,0.0271875
4.263,-1.675938,0.026875
4.264,-1.675,0.026875
4.265,-1.674063,0.0265625
4.266,-1.673125,0.0265625
4.267,-1.671875,0.02625
4.268,-1.67125,0.0259375
4.269,-1.670313,0.0259375
4.27,-1.669375,0.0259375
4.271,-1.669063,0.025625
4.272,-1.668438,0.0253125
4.273,-1.668438,0.0253125
4.274,-1.66875,0.025
4.275,-1.669063,0.0246875
4.276,-1.669375,0.0246875
4.277,-1.670625,0.0246875
4.278,-1.67125,0.024375
4.279,-1.6725,0.0240625
4.28,-1.673438,0.0240625
4.281,-1.674375,0.02375
4.282,-1.675625,0.02375
4.283,-1.676563,0.0234375
4.284,-1.677188,0.0234375
4.285,-1.678125,0.0234375
4.286,-1.678438,0.023125
4.287,-1.67875,0.023125
4.288,-1.679063,0.023125
4.289,-1.679063,0.0228125
4.29,-1.67875,0.0228125
4.291,-1.67875,0.0228125
4.292,-1.678125,0.0228125
4.293,-1.677812,0.0228125
4.294,-1.677188,0.0228125
4.295,-1.676875,0.0228125
4.296,-1.67625,0.0228125
4.297,-1.675313,0.0228125
4.298,-1.674375,0.0228125
4.299,-1.67375,0.0228125
4.3,-1.672813,0.0228125
4.301,-1.671875,0.0228125
4.302,-1.670625,0.0228125
4.303,-1.669375,0.0228125
4.304,-1.668125,0.023125
4.305,-1.666875,0.023125
4.306,-1.665625,0.023125
4.307,-1.664375,0.0234375
4.308,-1.662813,0.0234375
4.309,-1.661563,0.02375
4.31,-1.660625,0.02375
4.311,-1.659375,0.0240625
4.312,-1.658438,0.0240625
4.313,-1.657813,0.0240625
4.314,-1.6575,0.024375
4.315,-1.6575,0.024375
4.316,-1.6575,0.0246875
4.317,-1.658125,0.0246875
4.318,-1.65875,0.0246875
4.319,-1.66,0.025
4.32,-1.661563,0.025
4.321,-1.663438,0.0253125
4.322,-1.665313,0.0253125
4.323,-1.667813,0.0253125
4.324,-1.670313,0.025625
4.325,-1.672813,0.025625
4.326,-1.675938,0.0259375
4.327,-1.679063,0.0259375
4.328,-1.681875,0.0259375
4.329,-1.685,0.02625
4.33,-1.688125,0.02625
4.331,-1.69125,0.02625
4.332,-1.694375,0.0265625
4.333,-1.6975,0.0265625
4.334,-1.700313,0.0265625
4.335,-1.703437,0.0265625
4.336,-1.705938,0.0265625
4.337,-1.708438,0.0265625
4.338,-1.710625,0.0265625
4.339,-1.712813,0.0265625
4.34,-1.714375,0.026875
4.341,-1.715625,0.026875
4.342,-1.716875,0.026875
4.343,-1.717813,0.0265625
4.344,-1.718125,0.0265625
4.345,-1.718125,0.0265625
4.346,-1.7175,0.0265625
4.347,-1.716875,0.0265625
4.348,-1.715625,0.0265625
4.349,-1.714063,0.0265625
4.35,-1.7125,0.0265625
4.351,-1.71,0.0265625
4.352,-1.7075,0.0265625
4.353,-1.705,0.0265625
4.354,-1.701875,0.0265625
4.355,-1.698438,0.0265625
4.356,-1.695,0.0265625
4.357,-1.69125,0.0265625
4.358,-1.6875,0.0265625
4.359,-1.683438,0.0265625
4.36,-1.679375,0.0265625
4.361,-1.675,0.0265625
4.362,-1.670938,0.0265625
4.363,-1.666562,0.0265625
4.364,-1.6625,0.0265625
4.365,-1.658125,0.0265625
4.366,-1.654375,0.0265625
4.367,-1.650625,0.026875
4.368,-1.646875,0.026875
4.369,-1.643125,0.026875
4.37,-1.640313,0.026875
4.371,-1.6375,0.026875
4.372,-1.634688,0.026875
4.373,-1.632188,0.026875
4.374,-1.63,0.026875
4.375,-1.628125,0.026875
4.376,-1.626563,0.026875
4.377,-1.624688,0.026875
4.378,-1.623438,0.026875
4.379,-1.621875,0.026875
4.38,-1.620625,0.026875
4.381,-1.619375,0.026875
4.382,-1.618125,0.026875
4.383,-1.616875,0.026875
4.384,-1.615625,0.026875
4.385,-1.614688,0.026875
4.386,-1.613438,0.026875
4.387,-1.612188,0.026875
4.388,-1.61125,0.026875
4.389,-1.61,0.026875
4.39,-1.609375,0.026875
4.391,-1.608438,0.0265625
4.392,-1.6075,0.0265625
4.393,-1.6075,0.0265625
4.394,-1.606875,0.0265625
4.395,-1.606875,0.0265625
4.396,-1.606875,0.0265625
4.397,-1.6075,0.0265625
4.398,-1.6075,0.0265625
4.399,-1.608438,0.0265625
4.4,-1.609375,0.0265625
4.401,-1.610313,0.0265625
4.402,-1.611563,0.02625
4.403,-1.613438,0.02625
4.404,-1.615,0.02625
4.405,-1.617188,0.02625
4.406,-1.619375,0.02625
4.407,-1.621875,0.0259375
4.408,-1.624688,0.0259375
4.409,-1.627813,0.0259375
4.41,-1.630937,0.0259375
4.411,-1.634375,0.0259375
4.412,-1.637813,0.025625
4.413,-1.641563,0.025625
4.414,-1.645625,0.025625
4.415,-1.649375,0.0253125
4.416,-1.653125,0.0253125
4.417,-1.656562,0.0253125
4.418,-1.660313,0.025
4.419,-1.663438,0.025
4.42,-1.66625,0.025
4.421,-1.669063,0.0246875
4.422,-1.67125,0.0246875
4.423,-1.673125,0.0246875
4.424,-1.674375,0.024375
4.425,-1.675313,0.024375
4.426,-1.675313,0.0240625
4.427,-1.675,0.0240625
4.428,-1.674063,0.0240625
4.429,-1.672813,0.02375
4.43,-1.670625,0.02375
4.431,-1.668125,0.02375
4.432,-1.664688,0.02375
4.433,-1.660938,0.0234375
4.434,-1.656875,0.0234375
4.435,-1.651875,0.0234375
4.436,-1.646562,0.023125
4.437,-1.640625,0.023125
4.438,-1.634688,0.023125
4.439,-1.628438,0.0228125
4.44,-1.621875,0.0228125
4.441,-1.614688,0.0228125
4.442,-1.607813,0.0225
4.443,-1.600625,0.0225
4.444,-1.59375,0.0225
4.445,-1.586563,0.0225
4.446,-1.579688,0.0221875
4.447,-1.573125,0.0221875
4.448,-1.566875,0.0221875
4.449,-1.560625,0.021875
4.45,-1.555,0.021875
4.451,-1.55,0.021875
4.452,-1.545,0.021875
4.453,-1.540938,0.021875
4.454,-1.537187,0.0215625
4.455,-1.53375,0.0215625
4.456,-1.530938,0.0215625
4.457,-1.52875,0.02125
4.458,-1.527188,0.02125
4.459,-1.525625,0.02125
4.46,-1.525,0.02125
4.461,-1.524375,0.02125
4.462,-1.524375,0.0209375
4.463,-1.525,0.0209375
4.464,-1.525625,0.0209375
4.465,-1.52625,0.0209375
4.466,-1.5275,0.0209375
4.467,-1.52875,0.020625
4.468,-1.530313,0.020625
4.469,-1.531875,0.020625
4.47,-1.533438,0.020625
4.471,-1.535313,0.020625
4.472,-1.536875,0.020625
4.473,-1.53875,0.0203125
4.474,-1.540625,0.0203125
4.475,-1.542188,0.0203125
4.476,-1.544063,0.0203125
4.477,-1.545938,0.0203125
4.478,-1.547187,0.02
4.479,-1.54875,0.02
4.48,-1.55,0.02
4.481,-1.55125,0.0196875
4.482,-1.5525,0.0196875
4.483,-1.553438,0.0196875
4.484,-1.554063,0.0196875
4.485,-1.555,0.0196875
4.486,-1.555313,0.019375
4.487,-1.555938,0.019375
4.488,-1.55625,0.019375
4.489,-1.556563,0.019375
4.49,-1.556563,0.019375
4.491,-1.556875,0.0190625
4.492,-1.556875,0.0190625
4.493,-1.557187,0.0190625
4.494,-1.557187,0.0190625
4.495,-1.557187,0.0190625
4.496,-1.5575,0.0190625
4.497,-1.5575,0.0190625
4.498,-1.557813,0.0190625
4.499,-1.558125,0.01875
4.5,-1.558438,0.01875
4.501,-1.55875,0.01875
4.502,-1.559375,0.01875
4.503,-1.559688,0.0190625
4.504,-1.560625,0.0190625
4.505,-1.56125,0.0190625
4.506,-1.562188,0.0190625
4.507,-1.563125,0.0190625
4.508,-1.564375,0.0190625
4.509,-1.565313,0.0190625
4.51,-1.566875,0.0190625
4.511,-1.568125,0.0190625
4.512,-1.569375,0.0190625
4.513,-1.570938,0.0190625
4.514,-1.572188,0.0190625
4.515,-1.57375,0.0190625
4.516,-1.575313,0.019375
4.517,-1.576563,0.0190625
4.518,-1.577813,0.0190625
4.519,-1.57875,0.0190625
4.52,-1.579688,0.0190625
4.521,-1.580625,0.0190625
4.522,-1.58125,0.0190625
4.523,-1.581563,0.0190625
4.524,-1.582188,0.0190625
4.525,-1.5825,0.0190625
4.526,-1.5825,0.0190625
4.527,-1.5825,0.0190625
4.528,-1.5825,0.0190625
4.529,-1.5825,0.01875
4.53,-1.582188,0.01875
4.531,-1.582188,0.01875
4.532,-1.582188,0.01875
4.533,-1.581875,0.0184375
4.534,-1.581875,0.0184375
4.535,-1.581875,0.0184375
4.536,-1.581563,0.018125
4.537,-1.581563,0.018125
4.538,-1.581875,0.018125
4.539,-1.581875,0.0178125
4.54,-1.582188,0.0178125
4.541,-1.5825,0.0175
4.542,-1.582813,0.0175
4.543,-1.583125,0.0175
4.544,-1.58375,0.0171875
4.545,-1.584688,0.0171875
4.546,-1.585313,0.016875
4.547,-1.58625,0.016875
4.548,-1.587188,0.016875
4.549,-1.588125,0.0165625
4.55,-1.589375,0.0165625
4.551,-1.590625,0.01625
4.552,-1.591875,0.01625
4.553,-1.593125,0.01625
4.554,-1.594375,0.0159375
4.555,-1.595938,0.0159375
4.556,-1.597188,0.015625
4.557,-1.598438,0.015625
4.558,-1.6,0.015625
4.559,-1.60125,0.0153125
4.56,-1.6025,0.0153125
4.561,-1.60375,0.0153125
4.562,-1.605,0.015
4.563,-1.60625,0.015
4.564,-1.6075,0.015
4.565,-1.608125,0.0146875
4.566,-1.609063,0.0146875
4.567,-1.609375,0.0146875
4.568,-1.61,0.0146875
4.569,-1.61,0.0146875
4.57,-1.609687,0.0146875
4.571,-1.609375,0.014375
4.572,-1.608438,0.014375
4.573,-1.607188,0.014375
4.574,-1.605625,0.014375
4.575,-1.604062,0.014375
4.576,-1.601875,0.014375
4.577,-1.599687,0.014375
4.578,-1.597188,0.014375
4.579,-1.594688,0.014375
4.58,-1.592188,0.014375
4.581,-1.589375,0.014375
4.582,-1.586563,0.014375
4.583,-1.58375,0.014375
4.584,-1.580938,0.0146875
4.585,-1.577813,0.0146875
4.586,-1.575,0.0146875
4.587,-1.571875,0.0146875
4.588,-1.569063,0.0146875
4.589,-1.565938,0.0146875
4.59,-1.5625,0.015
4.591,-1.559375,0.015
4.592,-1.555625,0.015
4.593,-1.551875,0.0153125
4.594,-1.547813,0.0153125
4.595,-1.543438,0.0153125
4.596,-1.539375,0.015625
4.597,-1.535,0.015625
4.598,-1.530313,0.015625
4.599,-1.525937,0.0159375
4.6,-1.521562,0.0159375
4.601,-1.516875,0.01625
4.602,-1.5125,0.01625
4.603,-1.508438,0.01625
4.604,-1.504375,0.0165625
4.605,-1.5,0.0165625
4.606,-1.49625,0.016875
4.607,-1.4925,0.016875
4.608,-1.48875,0.016875
4.609,-1.485313,0.0171875
4.61,-1.481875,0.0171875
4.611,-1.478438,0.0175
4.612,-1.475313,0.0175
4.613,-1.471875,0.0175
4.614,-1.46875,0.0175
4.615,-1.465625,0.0175
4.616,-1.4625,0.0175
4.617,-1.46,0.0178125
4.618,-1.457188,0.0178125
4.619,-1.454688,0.0175
4.62,-1.4525,0.0175
4.621,-1.450938,0.0175
4.622,-1.449688,0.0175
4.623,-1.448438,0.0175
4.624,-1.448125,0.0175
4.625,-1.448125,0.0175
4.626,-1.448438,0.0175
4.627,-1.449375,0.0175
4.628,-1.450625,0.0175
4.629,-1.452188,0.0175
4.63,-1.454063,0.0175
4.631,-1.456563,0.0175
4.632,-1.459375,0.0171875
4.633,-1.462188,0.0171875
4.634,-1.465625,0.0171875
4.635,-1.469375,0.0171875
4.636,-1.473125,0.016875
4.637,-1.477188,0.016875
4.638,-1.481875,0.016875
4.639,-1.486563,0.016875
4.64,-1.491563,0.0165625
4.641,-1.496875,0.0165625
4.642,-1.5025,0.0165625
