Interval=,0.001 s,
ExcelDateTime=,4.54E+04,26:05.7
TimeFormat=,StartOfBlock,
DateFormat=,,
ChannelTitle=,Channel 3,Channel 4
Range=,10.000 mV,10.000 mV
0,0,0
0.001,0,0
0.002,0,0
0.003,0,-0.0003125
0.004,0,-0.0003125
0.005,0,-0.0003125
0.006,0,-0.0003125
0.007,0,-0.0003125
0.008,0,-0.0003125
0.009,0,-0.0003125
0.01,0,-0.000625
0.011,0,-0.000625
0.012,0,-0.000625
0.013,0,-0.0009375
0.014,0,-0.00125
0.015,0,-0.00125
0.016,0,-0.001875
0.017,0,-0.0021875
0.018,0,-0.0025
0.019,0,-0.003125
0.02,0,-0.0034375
0.021,0.0003125,-0.004375
0.022,0.0003125,-0.005
0.023,0.000625,-0.0059375
0.024,0.000625,-0.0065625
0.025,0.000625,-0.0078125
0.026,0.0009375,-0.00875
0.027,0.00125,-0.0096875
0.028,0.00125,-0.0109375
0.029,0.0015625,-0.0121875
0.03,0.001875,-0.0134375
0.031,0.001875,-0.015
0.032,0.0021875,-0.01625
0.033,0.0025,-0.0175
0.034,0.0025,-0.0190625
0.035,0.0028125,-0.020625
0.036,0.003125,-0.0221875
0.037,0.003125,-0.02375
0.038,0.0034375,-0.0253125
0.039,0.00375,-0.0265625
0.04,0.0040625,-0.0284375
0.041,0.0040625,-0.03
0.042,0.004375,-0.0315625
0.043,0.004375,-0.033125
0.044,0.0046875,-0.0346875
0.045,0.005,-0.03625
0.046,0.005,-0.0378125
0.047,0.0053125,-0.039375
0.048,0.005625,-0.040625
0.049,0.005625,-0.0421875
0.05,0.0059375,-0.04375
0.051,0.0059375,-0.045
0.052,0.00625,-0.0465625
0.053,0.0065625,-0.0478125
0.054,0.0065625,-0.0490625
0.055,0.006875,-0.05
0.056,0.006875,-0.0509375
0.057,0.006875,-0.051875
0.058,0.0071875,-0.0528125
0.059,0.0071875,-0.0534375
0.06,0.0071875,-0.054375
0.061,0.0075,-0.0553125
0.062,0.0075,-0.055625
0.063,0.0078125,-0.0565625
0.064,0.0078125,-0.056875
0.065,0.0078125,-0.0571875
0.066,0.008125,-0.058125
0.067,0.008125,-0.0584375
0.068,0.0084375,-0.05875
0.069,0.0084375,-0.059375
0.07,0.0084375,-0.0596875
0.071,0.00875,-0.0603125
0.072,0.00875,-0.0603125
0.073,0.00875,-0.0609375
0.074,0.0090625,-0.0609375
0.075,0.0090625,-0.06125
0.076,0.009375,-0.06125
0.077,0.009375,-0.06125
0.078,0.009375,-0.06125
0.079,0.009375,-0.06125
0.08,0.0096875,-0.0609375
0.081,0.0096875,-0.0609375
0.082,0.0096875,-0.0603125
0.083,0.0096875,-0.0603125
0.084,0.009375,-0.0596875
0.085,0.009375,-0.059375
0.086,0.009375,-0.0590625
0.087,0.009375,-0.0584375
0.088,0.0090625,-0.058125
0.089,0.0090625,-0.0575
0.09,0.00875,-0.0565625
0.091,0.0084375,-0.05625
0.092,0.0084375,-0.0553125
0.093,0.008125,-0.0546875
0.094,0.008125,-0.05375
0.095,0.0075,-0.053125
0.096,0.0075,-0.051875
0.097,0.0071875,-0.05125
0.098,0.006875,-0.05
0.099,0.006875,-0.049375
0.1,0.00625,-0.048125
0.101,0.00625,-0.0471875
0.102,0.0059375,-0.0459375
0.103,0.005625,-0.045
0.104,0.005625,-0.044375
0.105,0.0053125,-0.043125
0.106,0.005,-0.0425
0.107,0.005,-0.0415625
0.108,0.0046875,-0.040625
0.109,0.0046875,-0.04
0.11,0.004375,-0.0390625
0.111,0.004375,-0.0384375
0.112,0.004375,-0.0375
0.113,0.0040625,-0.0371875
0.114,0.0040625,-0.036875
0.115,0.0040625,-0.0359375
0.116,0.0040625,-0.035625
0.117,0.0040625,-0.0353125
0.118,0.0040625,-0.0346875
0.119,0.0040625,-0.0346875
0.12,0.004375,-0.0340625
0.121,0.004375,-0.0340625
0.122,0.004375,-0.0340625
0.123,0.0046875,-0.03375
0.124,0.0046875,-0.03375
0.125,0.005,-0.03375
0.126,0.005,-0.03375
0.127,0.005,-0.03375
0.128,0.0053125,-0.03375
0.129,0.0053125,-0.0340625
0.13,0.005625,-0.0340625
0.131,0.005625,-0.0340625
0.132,0.005625,-0.0340625
0.133,0.005625,-0.0340625
0.134,0.005625,-0.0340625
0.135,0.005625,-0.0340625
0.136,0.005625,-0.0340625
0.137,0.005625,-0.03375
0.138,0.005625,-0.03375
0.139,0.005625,-0.03375
0.14,0.005625,-0.03375
0.141,0.005625,-0.0334375
0.142,0.0059375,-0.0334375
0.143,0.0059375,-0.0334375
0.144,0.0059375,-0.033125
0.145,0.0059375,-0.033125
0.146,0.0059375,-0.0328125
0.147,0.0059375,-0.0328125
0.148,0.0059375,-0.0325
0.149,0.0059375,-0.031875
0.15,0.00625,-0.031875
0.151,0.00625,-0.03125
0.152,0.00625,-0.0309375
0.153,0.00625,-0.030625
0.154,0.00625,-0.0296875
0.155,0.00625,-0.029375
0.156,0.00625,-0.0290625
0.157,0.00625,-0.028125
0.158,0.00625,-0.0278125
0.159,0.00625,-0.0271875
0.16,0.0065625,-0.02625
0.161,0.0065625,-0.0259375
0.162,0.0065625,-0.025625
0.163,0.006875,-0.025
0.164,0.0071875,-0.0246875
0.165,0.0071875,-0.0240625
0.166,0.0078125,-0.0240625
0.167,0.0078125,-0.0234375
0.168,0.008125,-0.0234375
0.169,0.0084375,-0.0228125
0.17,0.0084375,-0.0225
0.171,0.00875,-0.0225
0.172,0.0090625,-0.0221875
0.173,0.009375,-0.0215625
0.174,0.009375,-0.0215625
0.175,0.009375,-0.0209375
0.176,0.0096875,-0.020625
0.177,0.0096875,-0.0203125
0.178,0.01,-0.02
0.179,0.01,-0.019375
0.18,0.01,-0.019375
0.181,0.01,-0.01875
0.182,0.01,-0.0184375
0.183,0.0103125,-0.018125
0.184,0.0103125,-0.018125
0.185,0.0103125,-0.0178125
0.186,0.010625,-0.0178125
0.187,0.010625,-0.0178125
0.188,0.010625,-0.0175
0.189,0.010625,-0.0175
0.19,0.010625,-0.0171875
0.191,0.010625,-0.0171875
0.192,0.010625,-0.0171875
0.193,0.010625,-0.016875
0.194,0.010625,-0.0165625
0.195,0.010625,-0.0165625
0.196,0.0103125,-0.01625
0.197,0.0103125,-0.015625
0.198,0.01,-0.0153125
0.199,0.01,-0.0153125
0.2,0.01,-0.0146875
0.201,0.0096875,-0.0146875
0.202,0.0096875,-0.0140625
0.203,0.009375,-0.01375
0.204,0.009375,-0.01375
0.205,0.0090625,-0.0134375
0.206,0.0090625,-0.0134375
0.207,0.0090625,-0.0134375
0.208,0.00875,-0.013125
0.209,0.00875,-0.013125
0.21,0.00875,-0.013125
0.211,0.0084375,-0.0134375
0.212,0.0084375,-0.0134375
0.213,0.008125,-0.0134375
0.214,0.008125,-0.0134375
0.215,0.008125,-0.0134375
0.216,0.0078125,-0.0134375
0.217,0.0078125,-0.01375
0.218,0.0075,-0.01375
0.219,0.0071875,-0.01375
0.22,0.0071875,-0.01375
0.221,0.006875,-0.01375
0.222,0.006875,-0.0140625
0.223,0.0065625,-0.0140625
0.224,0.0065625,-0.014375
0.225,0.00625,-0.014375
0.226,0.00625,-0.0146875
0.227,0.00625,-0.015
0.228,0.0059375,-0.015
0.229,0.0059375,-0.015625
0.23,0.0059375,-0.015625
0.231,0.005625,-0.01625
0.232,0.005625,-0.01625
0.233,0.0053125,-0.0165625
0.234,0.0053125,-0.0171875
0.235,0.0053125,-0.0171875
0.236,0.005,-0.0175
0.237,0.005,-0.0178125
0.238,0.005,-0.018125
0.239,0.0046875,-0.018125
0.24,0.0046875,-0.018125
0.241,0.004375,-0.0184375
0.242,0.004375,-0.0184375
0.243,0.0040625,-0.01875
0.244,0.00375,-0.0190625
0.245,0.00375,-0.0190625
0.246,0.0034375,-0.019375
0.247,0.003125,-0.0196875
0.248,0.003125,-0.0196875
0.249,0.0028125,-0.02
0.25,0.0025,-0.0203125
0.251,0.0025,-0.0203125
0.252,0.0021875,-0.020625
0.253,0.0021875,-0.0209375
0.254,0.001875,-0.0209375
0.255,0.0015625,-0.02125
0.256,0.0015625,-0.0215625
0.257,0.00125,-0.021875
0.258,0.00125,-0.021875
0.259,0.00125,-0.0221875
0.26,0.0009375,-0.0225
0.261,0.000625,-0.0225
0.262,0.000625,-0.0228125
0.263,0.0003125,-0.023125
0.264,0,-0.023125
0.265,0,-0.0234375
0.266,-0.0003125,-0.02375
0.267,-0.0003125,-0.0240625
0.268,-0.0003125,-0.024375
0.269,-0.000625,-0.024375
0.27,-0.000625,-0.025
0.271,-0.000625,-0.025
0.272,-0.0009375,-0.0253125
0.273,-0.0009375,-0.025625
0.274,-0.0009375,-0.025625
0.275,-0.0009375,-0.02625
0.276,-0.0009375,-0.02625
0.277,-0.0009375,-0.02625
0.278,-0.0009375,-0.0265625
0.279,-0.0009375,-0.026875
0.28,-0.000625,-0.026875
0.281,-0.000625,-0.0271875
0.282,-0.000625,-0.0271875
0.283,-0.000625,-0.0275
0.284,-0.0003125,-0.0275
0.285,-0.0003125,-0.0278125
0.286,0,-0.0278125
0.287,0,-0.028125
0.288,0,-0.0284375
0.289,0.0003125,-0.0284375
0.29,0.0003125,-0.02875
0.291,0.000625,-0.0290625
0.292,0.000625,-0.029375
0.293,0.0009375,-0.029375
0.294,0.0009375,-0.03
0.295,0.0009375,-0.03
0.296,0.00125,-0.0303125
0.297,0.00125,-0.030625
0.298,0.00125,-0.0309375
0.299,0.00125,-0.03125
0.3,0.00125,-0.0315625
0.301,0.00125,-0.031875
0.302,0.00125,-0.0325
0.303,0.0009375,-0.0328125
0.304,0.0009375,-0.033125
0.305,0.0009375,-0.03375
0.306,0.0009375,-0.0340625
0.307,0.0009375,-0.035
0.308,0.000625,-0.0353125
0.309,0.000625,-0.03625
0.31,0.000625,-0.0365625
0.311,0.000625,-0.0375
0.312,0.0003125,-0.038125
0.313,0.0003125,-0.0390625
0.314,0.0003125,-0.039375
0.315,0,-0.0403125
0.316,0,-0.04125
0.317,0,-0.0415625
0.318,-0.0003125,-0.0425
0.319,-0.0003125,-0.043125
0.32,-0.0003125,-0.0440625
0.321,-0.0003125,-0.045
0.322,-0.0003125,-0.045625
0.323,-0.0003125,-0.04625
0.324,0,-0.046875
0.325,0,-0.0478125
0.326,0,-0.04875
0.327,0.0003125,-0.049375
0.328,0.0003125,-0.0503125
0.329,0.000625,-0.0509375
0.33,0.0009375,-0.051875
0.331,0.0009375,-0.0521875
0.332,0.00125,-0.053125
0.333,0.0015625,-0.0534375
0.334,0.001875,-0.054375
0.335,0.0021875,-0.0546875
0.336,0.0021875,-0.055625
0.337,0.0025,-0.0559375
0.338,0.003125,-0.0565625
0.339,0.003125,-0.0571875
0.34,0.0034375,-0.0575
0.341,0.00375,-0.0578125
0.342,0.0040625,-0.0584375
0.343,0.0040625,-0.0590625
0.344,0.0046875,-0.0596875
0.345,0.0046875,-0.06
0.346,0.005,-0.060625
0.347,0.005625,-0.0609375
0.348,0.005625,-0.0615625
0.349,0.0059375,-0.0625
0.35,0.00625,-0.0628125
0.351,0.0065625,-0.0634375
0.352,0.0065625,-0.06375
0.353,0.0065625,-0.0640625
0.354,0.006875,-0.0646875
0.355,0.006875,-0.065
0.356,0.0071875,-0.0653125
0.357,0.0071875,-0.0659375
0.358,0.0071875,-0.06625
0.359,0.0071875,-0.06625
0.36,0.006875,-0.0665625
0.361,0.006875,-0.066875
0.362,0.006875,-0.066875
0.363,0.006875,-0.0671875
0.364,0.006875,-0.0675
0.365,0.006875,-0.0678125
0.366,0.006875,-0.0678125
0.367,0.006875,-0.068125
0.368,0.006875,-0.0684375
0.369,0.006875,-0.06875
0.37,0.006875,-0.06875
0.371,0.006875,-0.06875
0.372,0.006875,-0.06875
0.373,0.006875,-0.0690625
0.374,0.006875,-0.06875
0.375,0.0065625,-0.06875
0.376,0.0065625,-0.06875
0.377,0.0065625,-0.06875
0.378,0.00625,-0.0684375
0.379,0.00625,-0.068125
0.38,0.00625,-0.0678125
0.381,0.0059375,-0.0678125
0.382,0.0059375,-0.0671875
0.383,0.005625,-0.066875
0.384,0.005625,-0.066875
0.385,0.0053125,-0.0665625
0.386,0.005,-0.06625
0.387,0.005,-0.06625
0.388,0.0046875,-0.0659375
0.389,0.0046875,-0.0659375
0.39,0.0046875,-0.065625
0.391,0.004375,-0.0653125
0.392,0.004375,-0.0653125
0.393,0.004375,-0.0646875
0.394,0.0040625,-0.0646875
0.395,0.0040625,-0.064375
0.396,0.00375,-0.06375
0.397,0.00375,-0.0634375
0.398,0.00375,-0.063125
0.399,0.0034375,-0.0628125
0.4,0.0034375,-0.0621875
0.401,0.003125,-0.061875
0.402,0.003125,-0.06125
0.403,0.003125,-0.0609375
0.404,0.0028125,-0.0603125
0.405,0.0028125,-0.0596875
0.406,0.0028125,-0.059375
0.407,0.0028125,-0.0590625
0.408,0.0028125,-0.0584375
0.409,0.0028125,-0.058125
0.41,0.0028125,-0.0575
0.411,0.0028125,-0.0571875
0.412,0.0028125,-0.05625
0.413,0.0028125,-0.0559375
0.414,0.0028125,-0.0553125
0.415,0.003125,-0.055
0.416,0.003125,-0.054375
0.417,0.003125,-0.0534375
0.418,0.003125,-0.0528125
0.419,0.003125,-0.0521875
0.42,0.0034375,-0.05125
0.421,0.0034375,-0.0509375
0.422,0.0034375,-0.05
0.423,0.0034375,-0.0496875
0.424,0.0034375,-0.0490625
0.425,0.0034375,-0.04875
0.426,0.0034375,-0.048125
0.427,0.0034375,-0.0475
0.428,0.0034375,-0.0471875
0.429,0.003125,-0.046875
0.43,0.003125,-0.04625
0.431,0.003125,-0.0459375
0.432,0.003125,-0.045625
0.433,0.003125,-0.0453125
0.434,0.0028125,-0.045
0.435,0.0028125,-0.044375
0.436,0.0028125,-0.0440625
0.437,0.0025,-0.04375
0.438,0.0025,-0.0434375
0.439,0.0021875,-0.0428125
0.44,0.001875,-0.0425
0.441,0.001875,-0.0421875
0.442,0.0015625,-0.041875
0.443,0.0015625,-0.0415625
0.444,0.00125,-0.04125
0.445,0.00125,-0.0409375
0.446,0.00125,-0.040625
0.447,0.0009375,-0.040625
0.448,0.0009375,-0.04
0.449,0.0009375,-0.04
0.45,0.000625,-0.0396875
0.451,0.000625,-0.039375
0.452,0.0003125,-0.039375
0.453,0.0003125,-0.03875
0.454,0.0003125,-0.0384375
0.455,0,-0.0384375
0.456,0,-0.038125
0.457,0,-0.0378125
0.458,0,-0.0375
0.459,0,-0.0371875
0.46,0,-0.036875
0.461,0,-0.0365625
0.462,0,-0.0365625
0.463,0,-0.0365625
0.464,0,-0.03625
0.465,0,-0.03625
0.466,0,-0.03625
0.467,0,-0.03625
0.468,0,-0.03625
0.469,0,-0.0365625
0.47,0,-0.0365625
0.471,0,-0.036875
0.472,0,-0.036875
0.473,0,-0.0371875
0.474,0,-0.0375
0.475,0,-0.0375
0.476,-0.0003125,-0.0378125
0.477,-0.0003125,-0.038125
0.478,-0.0003125,-0.038125
0.479,-0.000625,-0.0384375
0.48,-0.000625,-0.0390625
0.481,-0.0009375,-0.039375
0.482,-0.0009375,-0.0396875
0.483,-0.0009375,-0.04
0.484,-0.00125,-0.040625
0.485,-0.00125,-0.0409375
0.486,-0.00125,-0.0415625
0.487,-0.0015625,-0.041875
0.488,-0.0015625,-0.0421875
0.489,-0.001875,-0.0428125
0.49,-0.001875,-0.043125
0.491,-0.001875,-0.04375
0.492,-0.001875,-0.0440625
0.493,-0.0021875,-0.044375
0.494,-0.0021875,-0.045
0.495,-0.0021875,-0.045
0.496,-0.0021875,-0.045625
0.497,-0.0021875,-0.0459375
0.498,-0.0021875,-0.0459375
0.499,-0.0021875,-0.04625
0.5,-0.0021875,-0.0465625
0.501,-0.0025,-0.0465625
0.502,-0.0025,-0.046875
0.503,-0.0025,-0.046875
0.504,-0.0025,-0.046875
0.505,-0.0025,-0.0471875
0.506,-0.0025,-0.0471875
0.507,-0.0025,-0.0471875
0.508,-0.0028125,-0.0471875
0.509,-0.0028125,-0.0471875
0.51,-0.0028125,-0.0471875
0.511,-0.0028125,-0.046875
0.512,-0.0028125,-0.046875
0.513,-0.003125,-0.0465625
0.514,-0.003125,-0.04625
0.515,-0.003125,-0.04625
0.516,-0.003125,-0.045625
0.517,-0.003125,-0.045625
0.518,-0.003125,-0.045
0.519,-0.003125,-0.045
0.52,-0.003125,-0.044375
0.521,-0.003125,-0.044375
0.522,-0.0028125,-0.0440625
0.523,-0.0028125,-0.0434375
0.524,-0.0028125,-0.0434375
0.525,-0.0025,-0.043125
0.526,-0.0025,-0.0428125
0.527,-0.0025,-0.0428125
0.528,-0.0021875,-0.0421875
0.529,-0.0021875,-0.0421875
0.53,-0.0021875,-0.041875
0.531,-0.0021875,-0.0415625
0.532,-0.0021875,-0.04125
0.533,-0.0021875,-0.0409375
0.534,-0.0021875,-0.040625
0.535,-0.0021875,-0.0403125
0.536,-0.0021875,-0.0396875
0.537,-0.0021875,-0.039375
0.538,-0.0021875,-0.03875
0.539,-0.0021875,-0.0384375
0.54,-0.0021875,-0.038125
0.541,-0.0021875,-0.0375
0.542,-0.0021875,-0.0371875
0.543,-0.0021875,-0.036875
0.544,-0.0021875,-0.0365625
0.545,-0.001875,-0.0359375
0.546,-0.001875,-0.0359375
0.547,-0.001875,-0.035625
0.548,-0.001875,-0.0353125
0.549,-0.001875,-0.035
0.55,-0.001875,-0.0346875
0.551,-0.001875,-0.0346875
0.552,-0.001875,-0.034375
0.553,-0.001875,-0.0340625
0.554,-0.0021875,-0.0340625
0.555,-0.0021875,-0.0334375
0.556,-0.0021875,-0.0334375
0.557,-0.0025,-0.0328125
0.558,-0.0025,-0.0325
0.559,-0.0028125,-0.0321875
0.56,-0.0028125,-0.031875
0.561,-0.003125,-0.031875
0.562,-0.003125,-0.0315625
0.563,-0.003125,-0.03125
0.564,-0.0034375,-0.0309375
0.565,-0.0034375,-0.0309375
0.566,-0.00375,-0.0309375
0.567,-0.00375,-0.0309375
0.568,-0.00375,-0.0309375
0.569,-0.00375,-0.0309375
0.57,-0.00375,-0.0309375
0.571,-0.00375,-0.03125
0.572,-0.00375,-0.0315625
0.573,-0.00375,-0.0315625
0.574,-0.00375,-0.031875
0.575,-0.00375,-0.0321875
0.576,-0.00375,-0.0325
0.577,-0.00375,-0.0328125
0.578,-0.00375,-0.033125
0.579,-0.0040625,-0.0334375
0.58,-0.0040625,-0.03375
0.581,-0.0040625,-0.034375
0.582,-0.0040625,-0.0346875
0.583,-0.0040625,-0.0353125
0.584,-0.004375,-0.035625
0.585,-0.004375,-0.0359375
0.586,-0.004375,-0.036875
0.587,-0.0046875,-0.0371875
0.588,-0.0046875,-0.0378125
0.589,-0.0046875,-0.03875
0.59,-0.005,-0.0390625
0.591,-0.005,-0.04
0.592,-0.005,-0.0403125
0.593,-0.005,-0.04125
0.594,-0.0053125,-0.0415625
0.595,-0.0053125,-0.0421875
0.596,-0.0053125,-0.043125
0.597,-0.005625,-0.0434375
0.598,-0.005625,-0.044375
0.599,-0.005625,-0.0446875
0.6,-0.0059375,-0.045
0.601,-0.0059375,-0.0459375
0.602,-0.0059375,-0.04625
0.603,-0.00625,-0.0465625
0.604,-0.00625,-0.0471875
0.605,-0.00625,-0.0475
0.606,-0.00625,-0.048125
0.607,-0.00625,-0.0484375
0.608,-0.00625,-0.0490625
0.609,-0.00625,-0.049375
0.61,-0.00625,-0.05
0.611,-0.00625,-0.0503125
0.612,-0.0059375,-0.0509375
0.613,-0.0059375,-0.05125
0.614,-0.005625,-0.0515625
0.615,-0.0053125,-0.051875
0.616,-0.0053125,-0.0525
0.617,-0.005,-0.0528125
0.618,-0.0046875,-0.053125
0.619,-0.0046875,-0.0534375
0.62,-0.0040625,-0.05375
0.621,-0.00375,-0.05375
0.622,-0.0034375,-0.054375
0.623,-0.003125,-0.054375
0.624,-0.0028125,-0.0546875
0.625,-0.0025,-0.055
0.626,-0.0021875,-0.055
0.627,-0.0015625,-0.0553125
0.628,-0.00125,-0.055625
0.629,-0.00125,-0.055625
0.63,-0.000625,-0.0559375
0.631,-0.0003125,-0.05625
0.632,0,-0.05625
0.633,0.0003125,-0.0565625
0.634,0.000625,-0.056875
0.635,0.0009375,-0.056875
0.636,0.0009375,-0.056875
0.637,0.00125,-0.0571875
0.638,0.0015625,-0.0571875
0.639,0.001875,-0.0571875
0.64,0.001875,-0.0571875
0.641,0.001875,-0.0571875
0.642,0.001875,-0.0571875
0.643,0.001875,-0.056875
0.644,0.001875,-0.056875
0.645,0.001875,-0.056875
0.646,0.001875,-0.056875
0.647,0.001875,-0.0565625
0.648,0.0015625,-0.05625
0.649,0.0015625,-0.05625
0.65,0.00125,-0.0559375
0.651,0.0009375,-0.055625
0.652,0.0009375,-0.055625
0.653,0.000625,-0.0553125
0.654,0.0003125,-0.055
0.655,0,-0.0546875
0.656,-0.0003125,-0.054375
0.657,-0.0003125,-0.0540625
0.658,-0.0009375,-0.0540625
0.659,-0.0009375,-0.05375
0.66,-0.00125,-0.053125
0.661,-0.0015625,-0.053125
0.662,-0.0015625,-0.0528125
0.663,-0.001875,-0.0525
0.664,-0.0021875,-0.0525
0.665,-0.0021875,-0.0521875
0.666,-0.0021875,-0.051875
0.667,-0.0025,-0.0515625
0.668,-0.0025,-0.0515625
0.669,-0.0028125,-0.0515625
0.67,-0.0028125,-0.05125
0.671,-0.0028125,-0.05125
0.672,-0.0028125,-0.05125
0.673,-0.0028125,-0.05125
0.674,-0.0028125,-0.05125
0.675,-0.0028125,-0.05125
0.676,-0.0028125,-0.05125
0.677,-0.0028125,-0.05125
0.678,-0.0025,-0.05125
0.679,-0.0025,-0.05125
0.68,-0.0025,-0.05125
0.681,-0.0021875,-0.05125
0.682,-0.0021875,-0.05125
0.683,-0.0021875,-0.0515625
0.684,-0.001875,-0.0515625
0.685,-0.001875,-0.0515625
0.686,-0.001875,-0.051875
0.687,-0.0015625,-0.051875
0.688,-0.0015625,-0.0521875
0.689,-0.00125,-0.0521875
0.69,-0.00125,-0.0521875
0.691,-0.00125,-0.0525
0.692,-0.0009375,-0.0525
0.693,-0.0009375,-0.0525
0.694,-0.0009375,-0.0528125
0.695,-0.0009375,-0.0528125
0.696,-0.000625,-0.0528125
0.697,-0.000625,-0.0528125
0.698,-0.0009375,-0.0528125
0.699,-0.0009375,-0.0528125
0.7,-0.0009375,-0.0528125
0.701,-0.0009375,-0.0528125
0.702,-0.0009375,-0.0528125
0.703,-0.00125,-0.0525
0.704,-0.00125,-0.0525
0.705,-0.0015625,-0.0525
0.706,-0.001875,-0.0521875
0.707,-0.001875,-0.051875
0.708,-0.0021875,-0.051875
0.709,-0.0025,-0.0515625
0.71,-0.0028125,-0.0515625
0.711,-0.003125,-0.05125
0.712,-0.0034375,-0.05125
0.713,-0.00375,-0.05125
0.714,-0.0040625,-0.0509375
0.715,-0.0046875,-0.0509375
0.716,-0.0046875,-0.050625
0.717,-0.0053125,-0.050625
0.718,-0.005625,-0.050625
0.719,-0.0059375,-0.050625
0.72,-0.00625,-0.050625
0.721,-0.006875,-0.0503125
0.722,-0.006875,-0.0503125
0.723,-0.0071875,-0.0503125
0.724,-0.0078125,-0.05
0.725,-0.008125,-0.05
0.726,-0.0084375,-0.05
0.727,-0.00875,-0.05
0.728,-0.00875,-0.05
0.729,-0.009375,-0.05
0.73,-0.0096875,-0.0496875
0.731,-0.0096875,-0.0496875
0.732,-0.0103125,-0.0496875
0.733,-0.0103125,-0.0496875
0.734,-0.010625,-0.0496875
0.735,-0.0109375,-0.0496875
0.736,-0.0109375,-0.0496875
0.737,-0.01125,-0.049375
0.738,-0.0115625,-0.049375
0.739,-0.011875,-0.049375
0.74,-0.011875,-0.0490625
0.741,-0.0121875,-0.0490625
0.742,-0.0121875,-0.04875
0.743,-0.0125,-0.04875
0.744,-0.0125,-0.04875
0.745,-0.0125,-0.0484375
0.746,-0.0128125,-0.048125
0.747,-0.0128125,-0.048125
0.748,-0.0128125,-0.0478125
0.749,-0.013125,-0.0478125
0.75,-0.013125,-0.0475
0.751,-0.013125,-0.0475
0.752,-0.013125,-0.0475
0.753,-0.0134375,-0.0471875
0.754,-0.0134375,-0.0471875
0.755,-0.0134375,-0.0471875
0.756,-0.01375,-0.046875
0.757,-0.01375,-0.046875
0.758,-0.01375,-0.046875
0.759,-0.0140625,-0.0465625
0.76,-0.0140625,-0.0465625
0.761,-0.0140625,-0.0465625
0.762,-0.014375,-0.04625
0.763,-0.014375,-0.04625
0.764,-0.014375,-0.04625
0.765,-0.0146875,-0.0459375
0.766,-0.0146875,-0.0459375
0.767,-0.0146875,-0.045625
0.768,-0.015,-0.045625
0.769,-0.015,-0.045625
0.77,-0.015,-0.045625
0.771,-0.015,-0.045625
0.772,-0.015,-0.0453125
0.773,-0.0153125,-0.0453125
0.774,-0.0153125,-0.0453125
0.775,-0.0153125,-0.0453125
0.776,-0.0153125,-0.0453125
0.777,-0.0153125,-0.0453125
0.778,-0.015625,-0.045
0.779,-0.015625,-0.045
0.78,-0.015625,-0.045
0.781,-0.015625,-0.0446875
0.782,-0.015625,-0.044375
0.783,-0.0159375,-0.0440625
0.784,-0.0159375,-0.0440625
0.785,-0.0159375,-0.0434375
0.786,-0.0159375,-0.0434375
0.787,-0.0159375,-0.043125
0.788,-0.0159375,-0.0428125
0.789,-0.0159375,-0.0428125
0.79,-0.0159375,-0.0425
0.791,-0.0159375,-0.0425
0.792,-0.0159375,-0.0425
0.793,-0.0159375,-0.0421875
0.794,-0.0159375,-0.0421875
0.795,-0.0159375,-0.0421875
0.796,-0.0159375,-0.0421875
0.797,-0.015625,-0.0421875
0.798,-0.015625,-0.0421875
0.799,-0.015625,-0.0421875
0.8,-0.015625,-0.0421875
0.801,-0.0153125,-0.0421875
0.802,-0.0153125,-0.0421875
0.803,-0.0153125,-0.041875
0.804,-0.015,-0.041875
0.805,-0.015,-0.0415625
0.806,-0.015,-0.0415625
0.807,-0.015,-0.0415625
0.808,-0.0146875,-0.04125
0.809,-0.0146875,-0.04125
0.81,-0.0146875,-0.04125
0.811,-0.0146875,-0.0409375
0.812,-0.0146875,-0.0409375
0.813,-0.0146875,-0.0409375
0.814,-0.0146875,-0.0409375
0.815,-0.0146875,-0.0409375
0.816,-0.0146875,-0.040625
0.817,-0.0146875,-0.040625
0.818,-0.0146875,-0.040625
0.819,-0.0146875,-0.0403125
0.82,-0.015,-0.04
0.821,-0.015,-0.0396875
0.822,-0.0153125,-0.0396875
0.823,-0.0153125,-0.039375
0.824,-0.0153125,-0.0390625
0.825,-0.015625,-0.03875
0.826,-0.015625,-0.03875
0.827,-0.0159375,-0.038125
0.828,-0.0159375,-0.038125
0.829,-0.01625,-0.0378125
0.83,-0.01625,-0.0375
0.831,-0.01625,-0.0375
0.832,-0.0165625,-0.0375
0.833,-0.016875,-0.0371875
0.834,-0.016875,-0.0371875
0.835,-0.016875,-0.0371875
0.836,-0.0171875,-0.0371875
0.837,-0.0171875,-0.0371875
0.838,-0.0175,-0.0371875
0.839,-0.0175,-0.0371875
0.84,-0.0175,-0.0371875
0.841,-0.0178125,-0.0371875
0.842,-0.0178125,-0.0371875
0.843,-0.018125,-0.0371875
0.844,-0.018125,-0.0371875
0.845,-0.018125,-0.0371875
0.846,-0.0184375,-0.0375
0.847,-0.0184375,-0.0375
0.848,-0.0184375,-0.0375
0.849,-0.0184375,-0.0378125
0.85,-0.0184375,-0.0378125
0.851,-0.0184375,-0.038125
0.852,-0.0184375,-0.038125
0.853,-0.0184375,-0.0384375
0.854,-0.0184375,-0.0384375
0.855,-0.0184375,-0.03875
0.856,-0.0184375,-0.03875
0.857,-0.0184375,-0.03875
0.858,-0.0184375,-0.0390625
0.859,-0.0184375,-0.0390625
0.86,-0.018125,-0.0390625
0.861,-0.018125,-0.0390625
0.862,-0.018125,-0.0390625
0.863,-0.018125,-0.03875
0.864,-0.018125,-0.03875
0.865,-0.018125,-0.03875
0.866,-0.018125,-0.0384375
0.867,-0.0178125,-0.038125
0.868,-0.0178125,-0.038125
0.869,-0.0178125,-0.0378125
0.87,-0.0178125,-0.0378125
0.871,-0.0178125,-0.0375
0.872,-0.0178125,-0.0375
0.873,-0.0178125,-0.0375
0.874,-0.0178125,-0.0371875
0.875,-0.0178125,-0.0371875
0.876,-0.0178125,-0.036875
0.877,-0.0175,-0.036875
0.878,-0.0175,-0.036875
0.879,-0.0175,-0.0365625
0.88,-0.0175,-0.03625
0.881,-0.0175,-0.03625
0.882,-0.0175,-0.0359375
0.883,-0.0175,-0.035625
0.884,-0.0175,-0.035625
0.885,-0.0171875,-0.0353125
0.886,-0.0171875,-0.035
0.887,-0.0171875,-0.035
0.888,-0.0171875,-0.035
0.889,-0.0171875,-0.035
0.89,-0.016875,-0.035
0.891,-0.016875,-0.035
0.892,-0.016875,-0.035
0.893,-0.016875,-0.0353125
0.894,-0.016875,-0.0353125
0.895,-0.016875,-0.0353125
0.896,-0.016875,-0.0359375
0.897,-0.016875,-0.0359375
0.898,-0.016875,-0.03625
0.899,-0.0171875,-0.0365625
0.9,-0.0171875,-0.0365625
0.901,-0.0171875,-0.036875
0.902,-0.0171875,-0.0371875
0.903,-0.0171875,-0.0375
0.904,-0.0175,-0.0375
0.905,-0.0175,-0.0375
0.906,-0.0178125,-0.0378125
0.907,-0.0178125,-0.0378125
0.908,-0.0178125,-0.038125
0.909,-0.018125,-0.0384375
0.91,-0.018125,-0.0384375
0.911,-0.0184375,-0.03875
0.912,-0.01875,-0.0390625
0.913,-0.01875,-0.0390625
0.914,-0.01875,-0.039375
0.915,-0.019375,-0.0396875
0.916,-0.019375,-0.0396875
0.917,-0.0196875,-0.0396875
0.918,-0.02,-0.04
0.919,-0.02,-0.04
0.92,-0.0203125,-0.0403125
0.921,-0.020625,-0.0403125
0.922,-0.020625,-0.04
0.923,-0.0209375,-0.04
0.924,-0.02125,-0.04
0.925,-0.0215625,-0.04
0.926,-0.0215625,-0.0396875
0.927,-0.021875,-0.0396875
0.928,-0.021875,-0.0396875
0.929,-0.021875,-0.039375
0.93,-0.0221875,-0.039375
0.931,-0.0221875,-0.039375
0.932,-0.0225,-0.0390625
0.933,-0.0225,-0.0390625
0.934,-0.0225,-0.0390625
0.935,-0.0225,-0.03875
0.936,-0.0225,-0.03875
0.937,-0.0225,-0.03875
0.938,-0.0225,-0.03875
0.939,-0.0225,-0.0384375
0.94,-0.0225,-0.0384375
0.941,-0.0225,-0.0384375
0.942,-0.0221875,-0.038125
0.943,-0.0221875,-0.038125
0.944,-0.0221875,-0.038125
0.945,-0.0221875,-0.0378125
0.946,-0.0221875,-0.0375
0.947,-0.0221875,-0.0375
0.948,-0.0221875,-0.0371875
0.949,-0.0221875,-0.036875
0.95,-0.021875,-0.036875
0.951,-0.021875,-0.036875
0.952,-0.021875,-0.0365625
0.953,-0.021875,-0.0365625
0.954,-0.021875,-0.03625
0.955,-0.0215625,-0.03625
0.956,-0.0215625,-0.03625
0.957,-0.0215625,-0.0359375
0.958,-0.0215625,-0.0359375
0.959,-0.0215625,-0.035625
0.96,-0.02125,-0.035625
0.961,-0.02125,-0.0353125
0.962,-0.02125,-0.0353125
0.963,-0.02125,-0.035
0.964,-0.0209375,-0.035
0.965,-0.0209375,-0.035
0.966,-0.0209375,-0.0346875
0.967,-0.020625,-0.0346875
0.968,-0.020625,-0.034375
0.969,-0.020625,-0.034375
0.97,-0.0203125,-0.0340625
0.971,-0.0203125,-0.0340625
0.972,-0.02,-0.0340625
0.973,-0.02,-0.03375
0.974,-0.02,-0.03375
0.975,-0.0196875,-0.03375
0.976,-0.0196875,-0.03375
0.977,-0.019375,-0.0334375
0.978,-0.019375,-0.0334375
0.979,-0.019375,-0.0334375
0.98,-0.0190625,-0.033125
0.981,-0.0190625,-0.033125
0.982,-0.0190625,-0.0328125
0.983,-0.01875,-0.0328125
0.984,-0.01875,-0.0325
0.985,-0.0184375,-0.0321875
0.986,-0.0184375,-0.0321875
0.987,-0.0184375,-0.0321875
0.988,-0.018125,-0.031875
0.989,-0.018125,-0.0315625
0.99,-0.018125,-0.0315625
0.991,-0.018125,-0.03125
0.992,-0.018125,-0.03125
0.993,-0.018125,-0.03125
0.994,-0.018125,-0.0309375
0.995,-0.018125,-0.0309375
0.996,-0.018125,-0.030625
0.997,-0.018125,-0.030625
0.998,-0.018125,-0.0303125
0.999,-0.018125,-0.0303125
1,-0.018125,-0.0303125
1.001,-0.018125,-0.03
1.002,-0.0184375,-0.03
1.003,-0.0184375,-0.0296875
1.004,-0.0184375,-0.0296875
1.005,-0.0184375,-0.029375
1.006,-0.0184375,-0.029375
1.007,-0.0184375,-0.029375
1.008,-0.0184375,-0.0290625
1.009,-0.0184375,-0.0290625
1.01,-0.0184375,-0.0290625
1.011,-0.0184375,-0.0290625
1.012,-0.0184375,-0.0290625
1.013,-0.0184375,-0.02875
1.014,-0.0184375,-0.02875
1.015,-0.018125,-0.02875
1.016,-0.018125,-0.02875
1.017,-0.018125,-0.02875
1.018,-0.0178125,-0.02875
1.019,-0.0178125,-0.02875
1.02,-0.0178125,-0.0284375
1.021,-0.0175,-0.0284375
1.022,-0.0175,-0.028125
1.023,-0.0171875,-0.028125
1.024,-0.016875,-0.0278125
1.025,-0.016875,-0.0275
1.026,-0.01625,-0.0275
1.027,-0.01625,-0.0271875
1.028,-0.0159375,-0.026875
1.029,-0.015625,-0.0265625
1.03,-0.0153125,-0.0265625
1.031,-0.0146875,-0.0259375
1.032,-0.0146875,-0.0259375
1.033,-0.0140625,-0.025625
1.034,-0.01375,-0.0253125
1.035,-0.0134375,-0.025
1.036,-0.013125,-0.025
1.037,-0.0128125,-0.0246875
1.038,-0.0121875,-0.024375
1.039,-0.011875,-0.0240625
1.04,-0.011875,-0.02375
1.041,-0.01125,-0.0234375
1.042,-0.0109375,-0.0228125
1.043,-0.010625,-0.0225
1.044,-0.0103125,-0.0221875
1.045,-0.01,-0.0215625
1.046,-0.0096875,-0.02125
1.047,-0.009375,-0.0209375
1.048,-0.009375,-0.0203125
1.049,-0.00875,-0.02
1.05,-0.00875,-0.0196875
1.051,-0.0084375,-0.0190625
1.052,-0.008125,-0.01875
1.053,-0.008125,-0.0184375
1.054,-0.0078125,-0.018125
1.055,-0.0075,-0.0178125
1.056,-0.0075,-0.0171875
1.057,-0.0071875,-0.0171875
1.058,-0.0071875,-0.016875
1.059,-0.0071875,-0.01625
1.06,-0.006875,-0.01625
1.061,-0.006875,-0.015625
1.062,-0.006875,-0.0153125
1.063,-0.0065625,-0.015
1.064,-0.0065625,-0.0146875
1.065,-0.0065625,-0.014375
1.066,-0.0065625,-0.0140625
1.067,-0.0065625,-0.0140625
1.068,-0.0065625,-0.01375
1.069,-0.0065625,-0.0134375
1.07,-0.0065625,-0.0134375
1.071,-0.00625,-0.013125
1.072,-0.00625,-0.013125
1.073,-0.00625,-0.013125
1.074,-0.00625,-0.013125
1.075,-0.00625,-0.0134375
1.076,-0.00625,-0.0134375
1.077,-0.00625,-0.0134375
1.078,-0.00625,-0.01375
1.079,-0.0065625,-0.01375
1.08,-0.0065625,-0.0140625
1.081,-0.0065625,-0.014375
1.082,-0.0065625,-0.014375
1.083,-0.0065625,-0.014375
1.084,-0.0065625,-0.015
1.085,-0.00625,-0.015
1.086,-0.00625,-0.0153125
1.087,-0.00625,-0.0153125
1.088,-0.00625,-0.015625
1.089,-0.00625,-0.01625
1.09,-0.00625,-0.01625
1.091,-0.00625,-0.0165625
1.092,-0.00625,-0.016875
1.093,-0.00625,-0.0171875
1.094,-0.00625,-0.0175
1.095,-0.00625,-0.0178125
1.096,-0.00625,-0.0178125
1.097,-0.00625,-0.0184375
1.098,-0.00625,-0.0184375
1.099,-0.00625,-0.01875
1.1,-0.0059375,-0.01875
1.101,-0.0059375,-0.01875
1.102,-0.0059375,-0.0190625
1.103,-0.0059375,-0.0190625
1.104,-0.0059375,-0.0190625
1.105,-0.0059375,-0.0190625
1.106,-0.0059375,-0.0190625
1.107,-0.0059375,-0.0190625
1.108,-0.0059375,-0.0190625
1.109,-0.0059375,-0.0190625
1.11,-0.0059375,-0.0190625
1.111,-0.0059375,-0.0190625
1.112,-0.00625,-0.0190625
1.113,-0.00625,-0.0190625
1.114,-0.00625,-0.0190625
1.115,-0.00625,-0.0190625
1.116,-0.00625,-0.0190625
1.117,-0.0065625,-0.01875
1.118,-0.0065625,-0.01875
1.119,-0.0065625,-0.01875
1.12,-0.0065625,-0.01875
1.121,-0.0065625,-0.01875
1.122,-0.006875,-0.0184375
1.123,-0.006875,-0.0184375
1.124,-0.006875,-0.018125
1.125,-0.0071875,-0.018125
1.126,-0.0071875,-0.018125
1.127,-0.0071875,-0.0178125
1.128,-0.0071875,-0.0178125
1.129,-0.0075,-0.0178125
1.13,-0.0075,-0.0175
1.131,-0.0075,-0.0175
1.132,-0.0078125,-0.0175
1.133,-0.0078125,-0.0175
1.134,-0.0078125,-0.0175
1.135,-0.008125,-0.0175
1.136,-0.008125,-0.0175
1.137,-0.0084375,-0.0175
1.138,-0.0084375,-0.0175
1.139,-0.0084375,-0.0175
1.14,-0.00875,-0.0175
1.141,-0.00875,-0.0175
1.142,-0.0090625,-0.0175
1.143,-0.0090625,-0.0175
1.144,-0.0090625,-0.0178125
1.145,-0.009375,-0.0178125
1.146,-0.009375,-0.0178125
1.147,-0.0096875,-0.018125
1.148,-0.0096875,-0.018125
1.149,-0.01,-0.018125
1.15,-0.0103125,-0.0184375
1.151,-0.0103125,-0.0184375
1.152,-0.010625,-0.01875
1.153,-0.0109375,-0.0190625
1.154,-0.0109375,-0.0190625
1.155,-0.0115625,-0.019375
1.156,-0.011875,-0.019375
1.157,-0.011875,-0.0196875
1.158,-0.0125,-0.02
1.159,-0.0125,-0.02
1.16,-0.0128125,-0.0203125
1.161,-0.0134375,-0.0203125
1.162,-0.0134375,-0.0203125
1.163,-0.0140625,-0.020625
1.164,-0.014375,-0.020625
1.165,-0.014375,-0.020625
1.166,-0.0146875,-0.0209375
1.167,-0.015,-0.0209375
1.168,-0.0153125,-0.0209375
1.169,-0.0153125,-0.0209375
1.17,-0.0159375,-0.0209375
1.171,-0.0159375,-0.0209375
1.172,-0.01625,-0.0209375
1.173,-0.01625,-0.0209375
1.174,-0.0165625,-0.0209375
1.175,-0.016875,-0.020625
1.176,-0.016875,-0.020625
1.177,-0.0171875,-0.020625
1.178,-0.0171875,-0.0203125
1.179,-0.0175,-0.0203125
1.18,-0.0175,-0.02
1.181,-0.0178125,-0.02
1.182,-0.0178125,-0.019375
1.183,-0.0178125,-0.019375
1.184,-0.018125,-0.0190625
1.185,-0.018125,-0.01875
1.186,-0.018125,-0.01875
1.187,-0.018125,-0.018125
1.188,-0.018125,-0.018125
1.189,-0.0178125,-0.0178125
1.19,-0.0178125,-0.0175
1.191,-0.0178125,-0.0175
1.192,-0.0178125,-0.016875
1.193,-0.0178125,-0.016875
1.194,-0.0178125,-0.0165625
1.195,-0.0178125,-0.01625
1.196,-0.0175,-0.01625
1.197,-0.0175,-0.0159375
1.198,-0.0175,-0.015625
1.199,-0.0175,-0.015625
1.2,-0.0175,-0.0153125
1.201,-0.0171875,-0.015
1.202,-0.0171875,-0.015
1.203,-0.0171875,-0.014375
1.204,-0.0171875,-0.0140625
1.205,-0.0171875,-0.0140625
1.206,-0.0171875,-0.01375
1.207,-0.0171875,-0.0134375
1.208,-0.016875,-0.013125
1.209,-0.016875,-0.013125
1.21,-0.016875,-0.0128125
1.211,-0.016875,-0.0125
1.212,-0.016875,-0.0121875
1.213,-0.016875,-0.0121875
1.214,-0.016875,-0.011875
1.215,-0.016875,-0.011875
1.216,-0.016875,-0.0115625
1.217,-0.0165625,-0.01125
1.218,-0.0165625,-0.01125
1.219,-0.0165625,-0.0109375
1.22,-0.0165625,-0.0103125
1.221,-0.0165625,-0.0103125
1.222,-0.0165625,-0.0096875
1.223,-0.0165625,-0.009375
1.224,-0.0165625,-0.0090625
1.225,-0.0165625,-0.00875
1.226,-0.0165625,-0.008125
1.227,-0.0165625,-0.0078125
1.228,-0.0165625,-0.0075
1.229,-0.0165625,-0.0071875
1.23,-0.0165625,-0.0065625
1.231,-0.01625,-0.00625
1.232,-0.01625,-0.0059375
1.233,-0.01625,-0.005625
1.234,-0.01625,-0.0053125
1.235,-0.01625,-0.005
1.236,-0.01625,-0.005
1.237,-0.01625,-0.004375
1.238,-0.01625,-0.004375
1.239,-0.0159375,-0.00375
1.24,-0.0159375,-0.00375
1.241,-0.0159375,-0.0034375
1.242,-0.0159375,-0.003125
1.243,-0.015625,-0.003125
1.244,-0.015625,-0.0025
1.245,-0.0153125,-0.0025
1.246,-0.0153125,-0.0021875
1.247,-0.0153125,-0.001875
1.248,-0.015,-0.001875
1.249,-0.015,-0.0015625
1.25,-0.0146875,-0.00125
1.251,-0.0146875,-0.00125
1.252,-0.0146875,-0.00125
1.253,-0.014375,-0.0009375
1.254,-0.014375,-0.0009375
1.255,-0.0140625,-0.0009375
1.256,-0.0140625,-0.000625
1.257,-0.0140625,-0.000625
1.258,-0.01375,-0.000625
1.259,-0.01375,-0.000625
1.26,-0.01375,-0.000625
1.261,-0.0134375,-0.000625
1.262,-0.0134375,-0.0003125
1.263,-0.0134375,-0.0003125
1.264,-0.013125,-0.0003125
1.265,-0.013125,-0.0003125
1.266,-0.013125,-0.0003125
1.267,-0.013125,-0.0003125
1.268,-0.013125,-0.0003125
1.269,-0.0128125,-0.0003125
1.27,-0.0128125,-0.0003125
1.271,-0.0128125,-0.0003125
1.272,-0.0128125,-0.000625
1.273,-0.0128125,-0.000625
1.274,-0.0128125,-0.000625
1.275,-0.0128125,-0.000625
1.276,-0.0128125,-0.000625
1.277,-0.0128125,-0.000625
1.278,-0.0125,-0.000625
1.279,-0.0125,-0.000625
1.28,-0.0125,-0.000625
1.281,-0.0125,-0.000625
1.282,-0.0125,-0.000625
1.283,-0.0125,-0.000625
1.284,-0.0125,-0.000625
1.285,-0.0121875,-0.0003125
1.286,-0.0121875,-0.0003125
1.287,-0.0121875,-0.0003125
1.288,-0.011875,-0.0003125
1.289,-0.011875,-0.000625
1.29,-0.011875,-0.000625
1.291,-0.0115625,-0.000625
1.292,-0.0115625,-0.000625
1.293,-0.0115625,-0.000625
1.294,-0.01125,-0.000625
1.295,-0.01125,-0.000625
1.296,-0.0109375,-0.000625
1.297,-0.010625,-0.000625
1.298,-0.010625,-0.000625
1.299,-0.010625,-0.000625
1.3,-0.0103125,-0.000625
1.301,-0.01,-0.000625
1.302,-0.01,-0.000625
1.303,-0.009375,-0.000625
1.304,-0.009375,-0.000625
1.305,-0.0090625,-0.000625
1.306,-0.00875,-0.000625
1.307,-0.00875,-0.000625
1.308,-0.0084375,-0.000625
1.309,-0.008125,-0.000625
1.31,-0.0078125,-0.000625
1.311,-0.0078125,-0.000625
1.312,-0.0075,-0.000625
1.313,-0.0071875,-0.000625
1.314,-0.0071875,-0.000625
1.315,-0.006875,-0.000625
1.316,-0.0065625,-0.000625
1.317,-0.0065625,-0.0009375
1.318,-0.00625,-0.0009375
1.319,-0.00625,-0.0009375
1.32,-0.0059375,-0.0009375
1.321,-0.0059375,-0.0009375
1.322,-0.0059375,-0.0009375
1.323,-0.005625,-0.000625
1.324,-0.005625,-0.000625
1.325,-0.005625,-0.000625
1.326,-0.005625,-0.000625
1.327,-0.005625,-0.0003125
1.328,-0.005625,-0.0003125
1.329,-0.0059375,-0.0003125
1.33,-0.0059375,0
1.331,-0.0059375,0
1.332,-0.00625,0
1.333,-0.00625,0.0003125
1.334,-0.00625,0.0003125
1.335,-0.0065625,0.0003125
1.336,-0.006875,0.000625
1.337,-0.006875,0.000625
1.338,-0.0071875,0.000625
1.339,-0.0075,0.000625
1.34,-0.0075,0.000625
1.341,-0.0078125,0.0009375
1.342,-0.008125,0.0009375
1.343,-0.008125,0.0009375
1.344,-0.00875,0.0009375
1.345,-0.00875,0.0009375
1.346,-0.0090625,0.00125
1.347,-0.009375,0.00125
1.348,-0.0096875,0.00125
1.349,-0.0096875,0.0015625
1.35,-0.0103125,0.0015625
1.351,-0.0103125,0.0015625
1.352,-0.010625,0.0015625
1.353,-0.0109375,0.0015625
1.354,-0.01125,0.0015625
1.355,-0.0115625,0.0015625
1.356,-0.0115625,0.0015625
1.357,-0.011875,0.0015625
1.358,-0.011875,0.0015625
1.359,-0.0121875,0.0015625
1.36,-0.0125,0.00125
1.361,-0.0125,0.00125
1.362,-0.0128125,0.00125
1.363,-0.0128125,0.0009375
1.364,-0.0128125,0.0009375
1.365,-0.013125,0.000625
1.366,-0.013125,0.000625
1.367,-0.013125,0.0003125
1.368,-0.013125,0
1.369,-0.0134375,0
1.37,-0.0134375,-0.0003125
1.371,-0.0134375,-0.000625
1.372,-0.0134375,-0.000625
1.373,-0.0134375,-0.0009375
1.374,-0.01375,-0.00125
1.375,-0.01375,-0.00125
1.376,-0.01375,-0.001875
1.377,-0.01375,-0.0021875
1.378,-0.01375,-0.0021875
1.379,-0.0140625,-0.0028125
1.38,-0.0140625,-0.0028125
1.381,-0.0140625,-0.0034375
1.382,-0.014375,-0.00375
1.383,-0.014375,-0.0040625
1.384,-0.014375,-0.004375
1.385,-0.0146875,-0.005
1.386,-0.0146875,-0.0053125
1.387,-0.0146875,-0.005625
1.388,-0.015,-0.0059375
1.389,-0.015,-0.0065625
1.39,-0.015,-0.006875
1.391,-0.0153125,-0.0075
1.392,-0.0153125,-0.0078125
1.393,-0.0153125,-0.0084375
1.394,-0.015625,-0.00875
1.395,-0.015625,-0.009375
1.396,-0.015625,-0.0096875
1.397,-0.0159375,-0.01
1.398,-0.0159375,-0.010625
1.399,-0.01625,-0.0109375
1.4,-0.01625,-0.01125
1.401,-0.0165625,-0.011875
1.402,-0.016875,-0.0121875
1.403,-0.016875,-0.0125
1.404,-0.0171875,-0.013125
1.405,-0.0175,-0.0134375
1.406,-0.0175,-0.01375
1.407,-0.0178125,-0.0140625
1.408,-0.0178125,-0.0146875
1.409,-0.018125,-0.015
1.41,-0.0184375,-0.0153125
1.411,-0.0184375,-0.0159375
1.412,-0.0184375,-0.01625
1.413,-0.01875,-0.0165625
1.414,-0.0190625,-0.016875
1.415,-0.0190625,-0.0175
1.416,-0.019375,-0.0175
1.417,-0.0196875,-0.018125
1.418,-0.02,-0.018125
1.419,-0.02,-0.0184375
1.42,-0.0203125,-0.01875
1.421,-0.020625,-0.01875
1.422,-0.020625,-0.0190625
1.423,-0.02125,-0.0190625
1.424,-0.02125,-0.0190625
1.425,-0.0215625,-0.019375
1.426,-0.021875,-0.019375
1.427,-0.021875,-0.019375
1.428,-0.0225,-0.019375
1.429,-0.0225,-0.0196875
1.43,-0.0228125,-0.0196875
1.431,-0.023125,-0.0196875
1.432,-0.023125,-0.0196875
1.433,-0.0234375,-0.0196875
1.434,-0.02375,-0.0196875
1.435,-0.02375,-0.019375
1.436,-0.0240625,-0.019375
1.437,-0.024375,-0.019375
1.438,-0.0246875,-0.019375
1.439,-0.0246875,-0.019375
1.44,-0.025,-0.019375
1.441,-0.025,-0.019375
1.442,-0.0253125,-0.0190625
1.443,-0.0253125,-0.0190625
1.444,-0.0253125,-0.01875
1.445,-0.025625,-0.01875
1.446,-0.025625,-0.01875
1.447,-0.025625,-0.0184375
1.448,-0.025625,-0.0184375
1.449,-0.025625,-0.0184375
1.45,-0.0259375,-0.018125
1.451,-0.0259375,-0.018125
1.452,-0.0259375,-0.0178125
1.453,-0.0259375,-0.0178125
1.454,-0.0259375,-0.0178125
1.455,-0.0259375,-0.0178125
1.456,-0.0259375,-0.0175
1.457,-0.0259375,-0.0175
1.458,-0.0259375,-0.0171875
1.459,-0.0259375,-0.0171875
1.46,-0.0259375,-0.0171875
1.461,-0.025625,-0.016875
1.462,-0.025625,-0.016875
1.463,-0.025625,-0.016875
1.464,-0.025625,-0.0165625
1.465,-0.025625,-0.0165625
1.466,-0.025625,-0.0165625
1.467,-0.025625,-0.0165625
1.468,-0.025625,-0.0165625
1.469,-0.0253125,-0.0165625
1.47,-0.0253125,-0.0165625
1.471,-0.0253125,-0.0165625
1.472,-0.025,-0.0165625
1.473,-0.025,-0.0165625
1.474,-0.025,-0.016875
1.475,-0.0246875,-0.016875
1.476,-0.0246875,-0.0171875
1.477,-0.0246875,-0.0171875
1.478,-0.0246875,-0.0171875
1.479,-0.024375,-0.0175
1.48,-0.024375,-0.0175
1.481,-0.0240625,-0.0178125
1.482,-0.0240625,-0.0178125
1.483,-0.0240625,-0.018125
1.484,-0.02375,-0.018125
1.485,-0.02375,-0.018125
1.486,-0.02375,-0.0184375
1.487,-0.0234375,-0.01875
1.488,-0.0234375,-0.01875
1.489,-0.023125,-0.0190625
1.49,-0.023125,-0.019375
1.491,-0.023125,-0.019375
1.492,-0.0228125,-0.0196875
1.493,-0.0228125,-0.0196875
1.494,-0.0228125,-0.02
1.495,-0.0225,-0.02
1.496,-0.0225,-0.02
1.497,-0.0225,-0.0203125
1.498,-0.0225,-0.0203125
1.499,-0.0225,-0.020625
1.5,-0.0221875,-0.020625
1.501,-0.0221875,-0.020625
1.502,-0.0221875,-0.020625
1.503,-0.0221875,-0.020625
1.504,-0.021875,-0.020625
1.505,-0.021875,-0.020625
1.506,-0.021875,-0.020625
1.507,-0.0215625,-0.020625
1.508,-0.0215625,-0.020625
1.509,-0.0215625,-0.020625
1.51,-0.0215625,-0.020625
1.511,-0.02125,-0.020625
1.512,-0.02125,-0.020625
1.513,-0.02125,-0.020625
1.514,-0.0209375,-0.020625
1.515,-0.0209375,-0.020625
1.516,-0.0209375,-0.020625
1.517,-0.020625,-0.020625
1.518,-0.020625,-0.020625
1.519,-0.020625,-0.020625
1.52,-0.0203125,-0.020625
1.521,-0.0203125,-0.020625
1.522,-0.0203125,-0.0203125
1.523,-0.02,-0.0203125
1.524,-0.02,-0.0203125
1.525,-0.0196875,-0.02
1.526,-0.019375,-0.02
1.527,-0.019375,-0.02
1.528,-0.0190625,-0.02
1.529,-0.0190625,-0.02
1.53,-0.01875,-0.0196875
1.531,-0.01875,-0.0196875
1.532,-0.01875,-0.0196875
1.533,-0.0184375,-0.0196875
1.534,-0.0184375,-0.019375
1.535,-0.018125,-0.019375
1.536,-0.018125,-0.019375
1.537,-0.018125,-0.019375
1.538,-0.0178125,-0.0190625
1.539,-0.0178125,-0.0190625
1.54,-0.0178125,-0.0190625
1.541,-0.0175,-0.01875
1.542,-0.0175,-0.01875
1.543,-0.0175,-0.01875
1.544,-0.0171875,-0.01875
1.545,-0.0171875,-0.0184375
1.546,-0.0171875,-0.0184375
1.547,-0.0171875,-0.0184375
1.548,-0.0171875,-0.018125
1.549,-0.0171875,-0.018125
1.55,-0.016875,-0.018125
1.551,-0.016875,-0.0178125
1.552,-0.016875,-0.0178125
1.553,-0.016875,-0.0178125
1.554,-0.016875,-0.0175
1.555,-0.016875,-0.0175
1.556,-0.016875,-0.0175
1.557,-0.016875,-0.0175
1.558,-0.016875,-0.0171875
1.559,-0.016875,-0.0171875
1.56,-0.016875,-0.0171875
1.561,-0.016875,-0.016875
1.562,-0.0165625,-0.016875
1.563,-0.0165625,-0.0165625
1.564,-0.0165625,-0.0165625
1.565,-0.0165625,-0.0165625
1.566,-0.0165625,-0.01625
1.567,-0.0165625,-0.01625
1.568,-0.0165625,-0.01625
1.569,-0.0165625,-0.0159375
1.57,-0.0165625,-0.0159375
1.571,-0.0165625,-0.015625
1.572,-0.0165625,-0.015625
1.573,-0.0165625,-0.0153125
1.574,-0.0165625,-0.0153125
1.575,-0.01625,-0.0153125
1.576,-0.01625,-0.015
1.577,-0.01625,-0.015
1.578,-0.01625,-0.0146875
1.579,-0.01625,-0.0146875
1.58,-0.01625,-0.014375
1.581,-0.01625,-0.014375
1.582,-0.01625,-0.014375
1.583,-0.01625,-0.0140625
1.584,-0.01625,-0.0140625
1.585,-0.01625,-0.01375
1.586,-0.01625,-0.01375
1.587,-0.01625,-0.01375
1.588,-0.0159375,-0.0134375
1.589,-0.0159375,-0.0134375
1.59,-0.0159375,-0.0134375
1.591,-0.0159375,-0.0134375
1.592,-0.0159375,-0.0134375
1.593,-0.015625,-0.0134375
1.594,-0.015625,-0.0134375
1.595,-0.015625,-0.013125
1.596,-0.015625,-0.013125
1.597,-0.015625,-0.0134375
1.598,-0.0153125,-0.0134375
1.599,-0.0153125,-0.0134375
1.6,-0.0153125,-0.0134375
1.601,-0.0153125,-0.0134375
1.602,-0.015,-0.0134375
1.603,-0.015,-0.0134375
1.604,-0.015,-0.0134375
1.605,-0.0146875,-0.01375
1.606,-0.0146875,-0.01375
1.607,-0.0146875,-0.0140625
1.608,-0.014375,-0.0140625
1.609,-0.014375,-0.014375
1.61,-0.014375,-0.0146875
1.611,-0.0140625,-0.015
1.612,-0.0140625,-0.015
1.613,-0.01375,-0.0153125
1.614,-0.0134375,-0.015625
1.615,-0.0134375,-0.0159375
1.616,-0.013125,-0.01625
1.617,-0.013125,-0.0165625
1.618,-0.013125,-0.016875
1.619,-0.0128125,-0.016875
1.62,-0.0128125,-0.0175
1.621,-0.0125,-0.0178125
1.622,-0.0125,-0.0178125
1.623,-0.0121875,-0.018125
1.624,-0.0121875,-0.018125
1.625,-0.011875,-0.0184375
1.626,-0.011875,-0.01875
1.627,-0.0115625,-0.0190625
1.628,-0.0115625,-0.0190625
1.629,-0.01125,-0.019375
1.63,-0.0109375,-0.019375
1.631,-0.0109375,-0.019375
1.632,-0.010625,-0.0196875
1.633,-0.010625,-0.0196875
1.634,-0.0103125,-0.0196875
1.635,-0.01,-0.02
1.636,-0.01,-0.02
1.637,-0.01,-0.02
1.638,-0.0096875,-0.02
1.639,-0.009375,-0.02
1.64,-0.009375,-0.0196875
1.641,-0.0090625,-0.0196875
1.642,-0.0090625,-0.0196875
1.643,-0.00875,-0.0196875
1.644,-0.00875,-0.0196875
1.645,-0.0084375,-0.0196875
1.646,-0.0084375,-0.0196875
1.647,-0.008125,-0.0196875
1.648,-0.008125,-0.019375
1.649,-0.0078125,-0.019375
1.65,-0.0078125,-0.0196875
1.651,-0.0075,-0.0196875
1.652,-0.0071875,-0.0196875
1.653,-0.0071875,-0.0196875
1.654,-0.006875,-0.0196875
1.655,-0.006875,-0.0196875
1.656,-0.0065625,-0.0196875
1.657,-0.0065625,-0.02
1.658,-0.00625,-0.02
1.659,-0.00625,-0.02
1.66,-0.00625,-0.0203125
1.661,-0.0059375,-0.0203125
1.662,-0.0059375,-0.0203125
1.663,-0.005625,-0.020625
1.664,-0.005625,-0.020625
1.665,-0.005625,-0.020625
1.666,-0.0053125,-0.0209375
1.667,-0.0053125,-0.0209375
1.668,-0.005,-0.02125
1.669,-0.005,-0.02125
1.67,-0.005,-0.021875
1.671,-0.0046875,-0.021875
1.672,-0.0046875,-0.0221875
1.673,-0.004375,-0.0225
1.674,-0.004375,-0.0225
1.675,-0.004375,-0.0228125
1.676,-0.0040625,-0.023125
1.677,-0.0040625,-0.023125
1.678,-0.00375,-0.02375
1.679,-0.00375,-0.02375
1.68,-0.00375,-0.0240625
1.681,-0.00375,-0.024375
1.682,-0.00375,-0.024375
1.683,-0.0034375,-0.025
1.684,-0.0034375,-0.0253125
1.685,-0.0034375,-0.0253125
1.686,-0.0034375,-0.025625
1.687,-0.0034375,-0.0259375
1.688,-0.0034375,-0.02625
1.689,-0.0034375,-0.0265625
1.69,-0.0034375,-0.026875
1.691,-0.0034375,-0.0271875
1.692,-0.0034375,-0.0275
1.693,-0.0034375,-0.0278125
1.694,-0.0034375,-0.028125
1.695,-0.0034375,-0.0284375
1.696,-0.0034375,-0.02875
1.697,-0.0034375,-0.0290625
1.698,-0.0034375,-0.029375
1.699,-0.0034375,-0.0296875
1.7,-0.00375,-0.03
1.701,-0.00375,-0.0303125
1.702,-0.00375,-0.030625
1.703,-0.00375,-0.030625
1.704,-0.00375,-0.03125
1.705,-0.0040625,-0.03125
1.706,-0.0040625,-0.0315625
1.707,-0.0040625,-0.031875
1.708,-0.0040625,-0.031875
1.709,-0.0040625,-0.0321875
1.71,-0.004375,-0.0321875
1.711,-0.004375,-0.0321875
1.712,-0.004375,-0.0325
1.713,-0.004375,-0.0325
1.714,-0.004375,-0.0325
1.715,-0.0046875,-0.0328125
1.716,-0.0046875,-0.0328125
1.717,-0.0046875,-0.0328125
1.718,-0.0046875,-0.033125
1.719,-0.0046875,-0.033125
1.72,-0.005,-0.033125
1.721,-0.005,-0.033125
1.722,-0.005,-0.033125
1.723,-0.005,-0.033125
1.724,-0.005,-0.0334375
1.725,-0.005,-0.0334375
1.726,-0.005,-0.0334375
1.727,-0.005,-0.03375
1.728,-0.005,-0.03375
1.729,-0.005,-0.03375
1.73,-0.005,-0.0340625
1.731,-0.0046875,-0.0340625
1.732,-0.0046875,-0.034375
1.733,-0.0046875,-0.0346875
1.734,-0.0046875,-0.0346875
1.735,-0.0046875,-0.035
1.736,-0.0046875,-0.035
1.737,-0.004375,-0.0353125
1.738,-0.004375,-0.0359375
1.739,-0.004375,-0.0359375
1.74,-0.004375,-0.0365625
1.741,-0.0040625,-0.0365625
1.742,-0.0040625,-0.0371875
1.743,-0.0040625,-0.0371875
1.744,-0.0040625,-0.0378125
1.745,-0.00375,-0.038125
1.746,-0.00375,-0.0384375
1.747,-0.00375,-0.03875
1.748,-0.0034375,-0.039375
1.749,-0.0034375,-0.0396875
1.75,-0.0034375,-0.04
1.751,-0.003125,-0.0403125
1.752,-0.003125,-0.040625
1.753,-0.003125,-0.04125
1.754,-0.0028125,-0.04125
1.755,-0.0028125,-0.041875
1.756,-0.0028125,-0.041875
1.757,-0.0028125,-0.0425
1.758,-0.0025,-0.0425
1.759,-0.0025,-0.0428125
1.76,-0.0025,-0.043125
1.761,-0.0025,-0.043125
1.762,-0.0025,-0.0434375
1.763,-0.0021875,-0.04375
1.764,-0.0021875,-0.04375
1.765,-0.0021875,-0.0440625
1.766,-0.0021875,-0.0440625
1.767,-0.0021875,-0.0440625
1.768,-0.0025,-0.044375
1.769,-0.0025,-0.044375
1.77,-0.0025,-0.044375
1.771,-0.0025,-0.0446875
1.772,-0.0025,-0.0446875
1.773,-0.0025,-0.0446875
1.774,-0.0028125,-0.045
1.775,-0.0028125,-0.045
1.776,-0.0028125,-0.045
1.777,-0.003125,-0.045
1.778,-0.003125,-0.045
1.779,-0.003125,-0.045
1.78,-0.0034375,-0.045
1.781,-0.00375,-0.045
1.782,-0.0040625,-0.0446875
1.783,-0.0040625,-0.0446875
1.784,-0.004375,-0.0446875
1.785,-0.004375,-0.0446875
1.786,-0.0046875,-0.0446875
1.787,-0.0053125,-0.0446875
1.788,-0.0053125,-0.0446875
1.789,-0.0059375,-0.045
1.79,-0.0059375,-0.045
1.791,-0.0065625,-0.045
1.792,-0.0065625,-0.045
1.793,-0.0071875,-0.045
1.794,-0.0075,-0.045
1.795,-0.0078125,-0.0453125
1.796,-0.0084375,-0.0453125
1.797,-0.00875,-0.0453125
1.798,-0.0090625,-0.045625
1.799,-0.009375,-0.045625
1.8,-0.01,-0.0459375
1.801,-0.0103125,-0.0459375
1.802,-0.010625,-0.0459375
1.803,-0.0109375,-0.04625
1.804,-0.0115625,-0.04625
1.805,-0.011875,-0.04625
1.806,-0.011875,-0.04625
1.807,-0.0125,-0.04625
1.808,-0.0128125,-0.04625
1.809,-0.0128125,-0.0465625
1.81,-0.013125,-0.0465625
1.811,-0.01375,-0.0465625
1.812,-0.01375,-0.0465625
1.813,-0.0140625,-0.04625
1.814,-0.0140625,-0.04625
1.815,-0.014375,-0.04625
1.816,-0.0146875,-0.04625
1.817,-0.0146875,-0.04625
1.818,-0.0146875,-0.04625
1.819,-0.015,-0.04625
1.82,-0.015,-0.04625
1.821,-0.015,-0.0459375
1.822,-0.015,-0.0459375
1.823,-0.015,-0.045625
1.824,-0.015,-0.045625
1.825,-0.015,-0.0453125
1.826,-0.0146875,-0.045
1.827,-0.0146875,-0.045
1.828,-0.0146875,-0.0446875
1.829,-0.014375,-0.044375
1.83,-0.014375,-0.044375
1.831,-0.0140625,-0.0440625
1.832,-0.0140625,-0.04375
1.833,-0.01375,-0.04375
1.834,-0.0134375,-0.0434375
1.835,-0.0134375,-0.043125
1.836,-0.013125,-0.043125
1.837,-0.0128125,-0.0428125
1.838,-0.0128125,-0.0428125
1.839,-0.0125,-0.0428125
1.84,-0.0121875,-0.0425
1.841,-0.011875,-0.0425
1.842,-0.011875,-0.0425
1.843,-0.0115625,-0.0421875
1.844,-0.0115625,-0.0421875
1.845,-0.01125,-0.0421875
1.846,-0.0109375,-0.041875
1.847,-0.0109375,-0.041875
1.848,-0.010625,-0.041875
1.849,-0.010625,-0.041875
1.85,-0.010625,-0.041875
1.851,-0.0103125,-0.0415625
1.852,-0.0103125,-0.0415625
1.853,-0.0103125,-0.0415625
1.854,-0.0103125,-0.0415625
1.855,-0.0103125,-0.0415625
1.856,-0.0103125,-0.0415625
1.857,-0.0103125,-0.0415625
1.858,-0.0103125,-0.0415625
1.859,-0.0103125,-0.04125
1.86,-0.0103125,-0.04125
1.861,-0.010625,-0.04125
1.862,-0.010625,-0.04125
1.863,-0.0109375,-0.04125
1.864,-0.0109375,-0.0409375
1.865,-0.0109375,-0.0409375
1.866,-0.01125,-0.0409375
1.867,-0.01125,-0.0409375
1.868,-0.0115625,-0.0409375
1.869,-0.0115625,-0.040625
1.87,-0.011875,-0.040625
1.871,-0.011875,-0.040625
1.872,-0.0121875,-0.040625
1.873,-0.0125,-0.040625
1.874,-0.0125,-0.040625
1.875,-0.0128125,-0.040625
1.876,-0.0128125,-0.040625
1.877,-0.013125,-0.040625
1.878,-0.013125,-0.040625
1.879,-0.013125,-0.0409375
1.88,-0.0134375,-0.0409375
1.881,-0.0134375,-0.0409375
1.882,-0.01375,-0.0409375
1.883,-0.01375,-0.0409375
1.884,-0.01375,-0.0409375
1.885,-0.01375,-0.0409375
1.886,-0.01375,-0.0409375
1.887,-0.01375,-0.0409375
1.888,-0.01375,-0.040625
1.889,-0.01375,-0.040625
1.89,-0.01375,-0.040625
1.891,-0.0134375,-0.040625
1.892,-0.0134375,-0.040625
1.893,-0.0134375,-0.0403125
1.894,-0.013125,-0.0403125
1.895,-0.013125,-0.0403125
1.896,-0.0128125,-0.04
1.897,-0.0128125,-0.04
1.898,-0.0125,-0.0396875
1.899,-0.0125,-0.039375
1.9,-0.0121875,-0.039375
1.901,-0.011875,-0.03875
1.902,-0.011875,-0.03875
1.903,-0.0115625,-0.038125
1.904,-0.0115625,-0.038125
1.905,-0.0109375,-0.0375
1.906,-0.0109375,-0.0371875
1.907,-0.010625,-0.036875
1.908,-0.0103125,-0.03625
1.909,-0.01,-0.0359375
1.91,-0.01,-0.035625
1.911,-0.0096875,-0.035
1.912,-0.0090625,-0.0346875
1.913,-0.0090625,-0.034375
1.914,-0.00875,-0.03375
1.915,-0.0084375,-0.0334375
1.916,-0.008125,-0.033125
1.917,-0.0078125,-0.0325
1.918,-0.0075,-0.0321875
1.919,-0.0071875,-0.031875
1.92,-0.006875,-0.0315625
1.921,-0.0065625,-0.03125
1.922,-0.00625,-0.0309375
1.923,-0.0059375,-0.030625
1.924,-0.005625,-0.0303125
1.925,-0.0053125,-0.03
1.926,-0.005,-0.03
1.927,-0.0046875,-0.029375
1.928,-0.004375,-0.029375
1.929,-0.0040625,-0.0290625
1.93,-0.00375,-0.0290625
1.931,-0.0034375,-0.0290625
1.932,-0.003125,-0.02875
1.933,-0.0028125,-0.02875
1.934,-0.0025,-0.0284375
1.935,-0.0021875,-0.0284375
1.936,-0.001875,-0.0284375
1.937,-0.001875,-0.0284375
1.938,-0.0015625,-0.0284375
1.939,-0.00125,-0.028125
1.94,-0.00125,-0.028125
1.941,-0.0009375,-0.028125
1.942,-0.000625,-0.028125
1.943,-0.000625,-0.028125
1.944,-0.0003125,-0.028125
1.945,-0.0003125,-0.028125
1.946,0,-0.028125
1.947,0,-0.0278125
1.948,0,-0.0278125
1.949,0.0003125,-0.0278125
1.95,0.0003125,-0.0278125
1.951,0.0003125,-0.0278125
1.952,0.0003125,-0.0278125
1.953,0.0003125,-0.0278125
1.954,0.0003125,-0.0278125
1.955,0.0003125,-0.0278125
1.956,0.0003125,-0.0275
1.957,0.0003125,-0.0275
1.958,0,-0.0275
1.959,0,-0.0275
1.96,0,-0.0275
1.961,-0.0003125,-0.0271875
1.962,-0.0003125,-0.0271875
1.963,-0.000625,-0.0271875
1.964,-0.000625,-0.0271875
1.965,-0.0009375,-0.0271875
1.966,-0.00125,-0.026875
1.967,-0.00125,-0.026875
1.968,-0.001875,-0.026875
1.969,-0.001875,-0.026875
1.97,-0.0021875,-0.026875
1.971,-0.0025,-0.026875
1.972,-0.0025,-0.026875
1.973,-0.0028125,-0.026875
1.974,-0.003125,-0.0265625
1.975,-0.0034375,-0.0265625
1.976,-0.0034375,-0.0265625
1.977,-0.00375,-0.0265625
1.978,-0.004375,-0.0265625
1.979,-0.004375,-0.02625
1.98,-0.0046875,-0.02625
1.981,-0.005,-0.02625
1.982,-0.0053125,-0.0259375
1.983,-0.005625,-0.0259375
1.984,-0.005625,-0.025625
1.985,-0.00625,-0.025625
1.986,-0.00625,-0.025625
1.987,-0.0065625,-0.0253125
1.988,-0.006875,-0.0253125
1.989,-0.006875,-0.025
1.99,-0.0071875,-0.025
1.991,-0.0071875,-0.0246875
1.992,-0.0075,-0.0246875
1.993,-0.0078125,-0.024375
1.994,-0.0078125,-0.024375
1.995,-0.008125,-0.0240625
1.996,-0.008125,-0.02375
1.997,-0.0084375,-0.02375
1.998,-0.0084375,-0.02375
1.999,-0.00875,-0.0234375
2,-0.00875,-0.023125
2.001,-0.00875,-0.023125
2.002,-0.0090625,-0.0228125
2.003,-0.0090625,-0.0225
2.004,-0.009375,-0.0225
2.005,-0.009375,-0.0221875
2.006,-0.0096875,-0.0221875
2.007,-0.0096875,-0.0221875
2.008,-0.0096875,-0.021875
2.009,-0.01,-0.021875
2.01,-0.01,-0.0215625
2.011,-0.01,-0.0215625
2.012,-0.0103125,-0.0215625
2.013,-0.0103125,-0.0215625
2.014,-0.0103125,-0.0215625
2.015,-0.010625,-0.0215625
2.016,-0.010625,-0.0215625
2.017,-0.010625,-0.0215625
2.018,-0.010625,-0.0215625
2.019,-0.0109375,-0.0215625
2.02,-0.0109375,-0.0215625
2.021,-0.0109375,-0.0215625
2.022,-0.01125,-0.0215625
2.023,-0.01125,-0.0215625
2.024,-0.01125,-0.0215625
2.025,-0.01125,-0.0215625
2.026,-0.01125,-0.0215625
2.027,-0.01125,-0.0215625
2.028,-0.0115625,-0.02125
2.029,-0.0115625,-0.02125
2.03,-0.0115625,-0.02125
2.031,-0.0115625,-0.02125
2.032,-0.0115625,-0.02125
2.033,-0.0115625,-0.02125
2.034,-0.0115625,-0.0209375
2.035,-0.011875,-0.0209375
2.036,-0.011875,-0.0209375
2.037,-0.011875,-0.020625
2.038,-0.011875,-0.0203125
2.039,-0.011875,-0.02
2.04,-0.0121875,-0.02
2.041,-0.0121875,-0.0196875
2.042,-0.0121875,-0.0196875
2.043,-0.0121875,-0.019375
2.044,-0.0125,-0.01875
2.045,-0.0125,-0.01875
2.046,-0.0125,-0.018125
2.047,-0.0125,-0.018125
2.048,-0.0125,-0.0175
2.049,-0.0125,-0.0175
2.05,-0.0128125,-0.0171875
2.051,-0.0128125,-0.016875
2.052,-0.0128125,-0.0165625
2.053,-0.0128125,-0.01625
2.054,-0.0128125,-0.01625
2.055,-0.0128125,-0.0159375
2.056,-0.0128125,-0.015625
2.057,-0.013125,-0.015625
2.058,-0.013125,-0.0153125
2.059,-0.013125,-0.0153125
2.06,-0.013125,-0.015
2.061,-0.013125,-0.015
2.062,-0.013125,-0.015
2.063,-0.0128125,-0.0146875
2.064,-0.0128125,-0.0146875
2.065,-0.0128125,-0.0146875
2.066,-0.0128125,-0.0146875
2.067,-0.0128125,-0.0146875
2.068,-0.0128125,-0.0146875
2.069,-0.0128125,-0.0146875
2.07,-0.0125,-0.0146875
2.071,-0.0125,-0.0146875
2.072,-0.0125,-0.0146875
2.073,-0.0121875,-0.015
2.074,-0.0121875,-0.015
2.075,-0.011875,-0.015
2.076,-0.011875,-0.015
2.077,-0.0115625,-0.015
2.078,-0.0115625,-0.015
2.079,-0.0115625,-0.015
2.08,-0.01125,-0.015
2.081,-0.01125,-0.015
2.082,-0.0109375,-0.015
2.083,-0.0109375,-0.0146875
2.084,-0.0109375,-0.0146875
2.085,-0.010625,-0.0146875
2.086,-0.010625,-0.014375
2.087,-0.0103125,-0.014375
2.088,-0.0103125,-0.0140625
2.089,-0.0103125,-0.01375
2.09,-0.0103125,-0.01375
2.091,-0.01,-0.01375
2.092,-0.01,-0.013125
2.093,-0.01,-0.013125
2.094,-0.01,-0.0128125
2.095,-0.01,-0.0125
2.096,-0.01,-0.0125
2.097,-0.01,-0.0121875
2.098,-0.0096875,-0.011875
2.099,-0.0096875,-0.011875
2.1,-0.0096875,-0.0115625
2.101,-0.0096875,-0.01125
2.102,-0.0096875,-0.01125
2.103,-0.0096875,-0.0109375
2.104,-0.0096875,-0.0109375
2.105,-0.0096875,-0.0109375
2.106,-0.0096875,-0.0109375
2.107,-0.0096875,-0.0109375
2.108,-0.0096875,-0.0109375
2.109,-0.0096875,-0.0109375
2.11,-0.0096875,-0.0109375
2.111,-0.0096875,-0.0109375
2.112,-0.01,-0.01125
2.113,-0.01,-0.01125
2.114,-0.01,-0.0115625
2.115,-0.01,-0.0115625
2.116,-0.01,-0.011875
2.117,-0.0103125,-0.011875
2.118,-0.0103125,-0.0121875
2.119,-0.0103125,-0.0125
2.12,-0.010625,-0.0125
2.121,-0.010625,-0.0125
2.122,-0.010625,-0.0128125
2.123,-0.0109375,-0.0128125
2.124,-0.01125,-0.0128125
2.125,-0.01125,-0.013125
2.126,-0.0115625,-0.013125
2.127,-0.011875,-0.0134375
2.128,-0.011875,-0.0134375
2.129,-0.0121875,-0.0134375
2.13,-0.0125,-0.01375
2.131,-0.0125,-0.01375
2.132,-0.0128125,-0.01375
2.133,-0.013125,-0.0140625
2.134,-0.0134375,-0.0140625
2.135,-0.01375,-0.0140625
2.136,-0.01375,-0.0140625
2.137,-0.014375,-0.014375
2.138,-0.014375,-0.014375
2.139,-0.0146875,-0.014375
2.14,-0.015,-0.014375
2.141,-0.015,-0.014375
2.142,-0.0153125,-0.0146875
2.143,-0.015625,-0.0146875
2.144,-0.0159375,-0.0146875
2.145,-0.0159375,-0.015
2.146,-0.0159375,-0.015
2.147,-0.01625,-0.015
2.148,-0.01625,-0.0153125
2.149,-0.01625,-0.0153125
2.15,-0.01625,-0.015625
2.151,-0.01625,-0.01625
2.152,-0.01625,-0.01625
2.153,-0.0159375,-0.016875
2.154,-0.0159375,-0.016875
2.155,-0.015625,-0.0175
2.156,-0.015625,-0.0178125
2.157,-0.015625,-0.018125
2.158,-0.0153125,-0.0184375
2.159,-0.0153125,-0.0190625
2.16,-0.015,-0.019375
2.161,-0.015,-0.0196875
2.162,-0.0146875,-0.02
2.163,-0.014375,-0.020625
2.164,-0.014375,-0.020625
2.165,-0.0140625,-0.02125
2.166,-0.0140625,-0.02125
2.167,-0.01375,-0.021875
2.168,-0.01375,-0.0221875
2.169,-0.0134375,-0.0221875
2.17,-0.0134375,-0.0225
2.171,-0.0134375,-0.0228125
2.172,-0.013125,-0.023125
2.173,-0.013125,-0.023125
2.174,-0.013125,-0.0234375
2.175,-0.0128125,-0.02375
2.176,-0.0128125,-0.02375
2.177,-0.0128125,-0.0240625
2.178,-0.0128125,-0.0240625
2.179,-0.0128125,-0.0240625
2.18,-0.0128125,-0.024375
2.181,-0.0128125,-0.024375
2.182,-0.0128125,-0.024375
2.183,-0.013125,-0.024375
2.184,-0.013125,-0.024375
2.185,-0.013125,-0.0240625
2.186,-0.013125,-0.0240625
2.187,-0.0134375,-0.0240625
2.188,-0.0134375,-0.02375
2.189,-0.0134375,-0.02375
2.19,-0.01375,-0.0234375
2.191,-0.01375,-0.0234375
2.192,-0.01375,-0.0234375
2.193,-0.0140625,-0.023125
2.194,-0.0140625,-0.023125
2.195,-0.0140625,-0.0228125
2.196,-0.0140625,-0.0225
2.197,-0.014375,-0.0221875
2.198,-0.014375,-0.0221875
2.199,-0.014375,-0.021875
2.2,-0.014375,-0.0215625
2.201,-0.014375,-0.02125
2.202,-0.014375,-0.0209375
2.203,-0.0146875,-0.020625
2.204,-0.0146875,-0.0203125
2.205,-0.0146875,-0.02
2.206,-0.0146875,-0.0196875
2.207,-0.0146875,-0.0190625
2.208,-0.0146875,-0.01875
2.209,-0.015,-0.0184375
2.21,-0.015,-0.0178125
2.211,-0.015,-0.0175
2.212,-0.015,-0.0171875
2.213,-0.015,-0.016875
2.214,-0.015,-0.0165625
2.215,-0.0146875,-0.0159375
2.216,-0.0146875,-0.0159375
2.217,-0.0146875,-0.0153125
2.218,-0.0146875,-0.0153125
2.219,-0.0146875,-0.015
2.22,-0.0146875,-0.0146875
2.221,-0.0146875,-0.0146875
2.222,-0.0146875,-0.014375
2.223,-0.0146875,-0.0140625
2.224,-0.0146875,-0.01375
2.225,-0.014375,-0.01375
2.226,-0.014375,-0.01375
2.227,-0.014375,-0.0134375
2.228,-0.014375,-0.0134375
2.229,-0.014375,-0.013125
2.23,-0.0140625,-0.013125
2.231,-0.0140625,-0.013125
2.232,-0.0140625,-0.013125
2.233,-0.0140625,-0.013125
2.234,-0.01375,-0.013125
2.235,-0.01375,-0.013125
2.236,-0.01375,-0.013125
2.237,-0.0134375,-0.013125
2.238,-0.0134375,-0.013125
2.239,-0.0134375,-0.013125
2.24,-0.0134375,-0.013125
2.241,-0.013125,-0.013125
2.242,-0.013125,-0.013125
2.243,-0.013125,-0.013125
2.244,-0.0128125,-0.0128125
2.245,-0.0128125,-0.0128125
2.246,-0.0125,-0.0125
2.247,-0.0125,-0.0125
2.248,-0.0125,-0.0125
2.249,-0.0121875,-0.0121875
2.25,-0.0121875,-0.011875
2.251,-0.0121875,-0.011875
2.252,-0.0121875,-0.0115625
2.253,-0.0121875,-0.01125
2.254,-0.011875,-0.01125
2.255,-0.011875,-0.0109375
2.256,-0.011875,-0.0103125
2.257,-0.011875,-0.01
2.258,-0.0121875,-0.01
2.259,-0.0121875,-0.0096875
2.26,-0.0121875,-0.0090625
2.261,-0.0121875,-0.0090625
2.262,-0.0121875,-0.0084375
2.263,-0.0121875,-0.008125
2.264,-0.0121875,-0.008125
2.265,-0.0121875,-0.0078125
2.266,-0.0121875,-0.0075
2.267,-0.0121875,-0.0071875
2.268,-0.0121875,-0.006875
2.269,-0.0121875,-0.006875
2.27,-0.0125,-0.0065625
2.271,-0.0125,-0.00625
2.272,-0.0125,-0.0059375
2.273,-0.0125,-0.0059375
2.274,-0.0125,-0.005625
2.275,-0.0125,-0.005625
2.276,-0.0125,-0.0053125
2.277,-0.0125,-0.005
2.278,-0.0125,-0.005
2.279,-0.0125,-0.0046875
2.28,-0.0125,-0.004375
2.281,-0.0125,-0.004375
2.282,-0.0125,-0.004375
2.283,-0.0125,-0.0040625
2.284,-0.0125,-0.00375
2.285,-0.0121875,-0.00375
2.286,-0.0121875,-0.00375
2.287,-0.0121875,-0.0034375
2.288,-0.011875,-0.0034375
2.289,-0.011875,-0.003125
2.29,-0.0115625,-0.003125
2.291,-0.01125,-0.003125
2.292,-0.01125,-0.0028125
2.293,-0.01125,-0.0028125
2.294,-0.010625,-0.0028125
2.295,-0.010625,-0.0025
2.296,-0.0103125,-0.0025
2.297,-0.01,-0.0025
2.298,-0.01,-0.0025
2.299,-0.0096875,-0.0025
2.3,-0.009375,-0.0025
2.301,-0.009375,-0.0021875
2.302,-0.0090625,-0.0021875
2.303,-0.00875,-0.0025
2.304,-0.0084375,-0.0025
2.305,-0.0084375,-0.0025
2.306,-0.0084375,-0.0025
2.307,-0.008125,-0.0025
2.308,-0.0078125,-0.0025
2.309,-0.0078125,-0.0028125
2.31,-0.0075,-0.0028125
2.311,-0.0075,-0.003125
2.312,-0.0075,-0.0034375
2.313,-0.0071875,-0.0034375
2.314,-0.0071875,-0.00375
2.315,-0.0071875,-0.0040625
2.316,-0.006875,-0.004375
2.317,-0.006875,-0.0046875
2.318,-0.006875,-0.005
2.319,-0.006875,-0.0053125
2.32,-0.006875,-0.005625
2.321,-0.0071875,-0.0059375
2.322,-0.0071875,-0.00625
2.323,-0.0071875,-0.0065625
2.324,-0.0071875,-0.006875
2.325,-0.0071875,-0.0075
2.326,-0.0075,-0.0078125
2.327,-0.0075,-0.008125
2.328,-0.0075,-0.0084375
2.329,-0.0078125,-0.00875
2.33,-0.0078125,-0.009375
2.331,-0.008125,-0.0096875
2.332,-0.008125,-0.01
2.333,-0.008125,-0.0103125
2.334,-0.0084375,-0.0109375
2.335,-0.0084375,-0.0109375
2.336,-0.0084375,-0.0115625
2.337,-0.00875,-0.0115625
2.338,-0.00875,-0.011875
2.339,-0.00875,-0.0125
2.34,-0.0090625,-0.0125
2.341,-0.0090625,-0.0128125
2.342,-0.0090625,-0.013125
2.343,-0.0090625,-0.013125
2.344,-0.0090625,-0.0134375
2.345,-0.0090625,-0.01375
2.346,-0.009375,-0.01375
2.347,-0.009375,-0.0140625
2.348,-0.009375,-0.014375
2.349,-0.0090625,-0.014375
2.35,-0.0090625,-0.0146875
2.351,-0.0090625,-0.015
2.352,-0.0090625,-0.0153125
2.353,-0.0090625,-0.0153125
2.354,-0.0090625,-0.015625
2.355,-0.00875,-0.015625
2.356,-0.00875,-0.0159375
2.357,-0.00875,-0.0159375
2.358,-0.0084375,-0.0159375
2.359,-0.0084375,-0.01625
2.36,-0.008125,-0.01625
2.361,-0.008125,-0.01625
2.362,-0.008125,-0.0165625
2.363,-0.0078125,-0.0165625
2.364,-0.0075,-0.016875
2.365,-0.0075,-0.016875
2.366,-0.0071875,-0.0171875
2.367,-0.0071875,-0.0175
2.368,-0.006875,-0.0175
2.369,-0.006875,-0.018125
2.37,-0.0065625,-0.018125
2.371,-0.0065625,-0.0184375
2.372,-0.00625,-0.01875
2.373,-0.00625,-0.0190625
2.374,-0.0059375,-0.019375
2.375,-0.0059375,-0.019375
2.376,-0.005625,-0.02
2.377,-0.005625,-0.02
2.378,-0.0053125,-0.0203125
2.379,-0.0053125,-0.020625
2.38,-0.0053125,-0.020625
2.381,-0.005,-0.0209375
2.382,-0.005,-0.02125
2.383,-0.005,-0.02125
2.384,-0.0046875,-0.0215625
2.385,-0.0046875,-0.0215625
2.386,-0.0046875,-0.0215625
2.387,-0.0046875,-0.021875
2.388,-0.0046875,-0.021875
2.389,-0.0046875,-0.021875
2.39,-0.0046875,-0.0221875
2.391,-0.005,-0.0221875
2.392,-0.005,-0.0221875
2.393,-0.005,-0.0221875
2.394,-0.0053125,-0.0221875
2.395,-0.0053125,-0.021875
2.396,-0.0053125,-0.021875
2.397,-0.005625,-0.021875
2.398,-0.005625,-0.021875
2.399,-0.0059375,-0.0215625
2.4,-0.00625,-0.0215625
2.401,-0.00625,-0.0215625
2.402,-0.0065625,-0.02125
2.403,-0.006875,-0.02125
2.404,-0.006875,-0.0209375
2.405,-0.006875,-0.0209375
2.406,-0.0071875,-0.020625
2.407,-0.0075,-0.020625
2.408,-0.0078125,-0.0203125
2.409,-0.0078125,-0.0203125
2.41,-0.008125,-0.0203125
2.411,-0.008125,-0.02
2.412,-0.0084375,-0.02
2.413,-0.0084375,-0.02
2.414,-0.0084375,-0.02
2.415,-0.00875,-0.02
2.416,-0.00875,-0.02
2.417,-0.00875,-0.02
2.418,-0.00875,-0.0203125
2.419,-0.00875,-0.0203125
2.42,-0.00875,-0.0203125
2.421,-0.00875,-0.020625
2.422,-0.00875,-0.020625
2.423,-0.00875,-0.020625
2.424,-0.00875,-0.0209375
2.425,-0.0084375,-0.0209375
2.426,-0.0084375,-0.02125
2.427,-0.008125,-0.02125
2.428,-0.008125,-0.0215625
2.429,-0.0078125,-0.021875
2.43,-0.0075,-0.021875
2.431,-0.0075,-0.0221875
2.432,-0.006875,-0.0225
2.433,-0.006875,-0.0228125
2.434,-0.0065625,-0.0228125
2.435,-0.00625,-0.023125
2.436,-0.0059375,-0.0234375
2.437,-0.005625,-0.0234375
2.438,-0.005625,-0.02375
2.439,-0.005,-0.02375
2.44,-0.0046875,-0.0240625
2.441,-0.0046875,-0.0240625
2.442,-0.0040625,-0.024375
2.443,-0.0040625,-0.024375
2.444,-0.00375,-0.0246875
2.445,-0.0034375,-0.0246875
2.446,-0.0034375,-0.0246875
2.447,-0.003125,-0.025
2.448,-0.0028125,-0.025
2.449,-0.0025,-0.025
2.45,-0.0025,-0.0253125
2.451,-0.0021875,-0.0253125
2.452,-0.0021875,-0.0253125
2.453,-0.0021875,-0.025625
2.454,-0.001875,-0.025625
2.455,-0.001875,-0.025625
2.456,-0.001875,-0.025625
2.457,-0.0015625,-0.025625
2.458,-0.0015625,-0.0259375
2.459,-0.0015625,-0.0259375
2.46,-0.0015625,-0.0259375
2.461,-0.0015625,-0.0259375
2.462,-0.0015625,-0.0259375
2.463,-0.0015625,-0.0259375
2.464,-0.0015625,-0.0259375
2.465,-0.0015625,-0.0259375
2.466,-0.0015625,-0.0259375
2.467,-0.0015625,-0.0259375
2.468,-0.0015625,-0.0259375
2.469,-0.0015625,-0.0259375
2.47,-0.001875,-0.0259375
2.471,-0.001875,-0.0259375
2.472,-0.001875,-0.0259375
2.473,-0.001875,-0.0259375
2.474,-0.0021875,-0.025625
2.475,-0.0021875,-0.025625
2.476,-0.0021875,-0.025625
2.477,-0.0025,-0.025625
2.478,-0.0025,-0.025625
2.479,-0.0025,-0.025625
2.48,-0.0028125,-0.0253125
2.481,-0.0028125,-0.0253125
2.482,-0.0028125,-0.0253125
2.483,-0.003125,-0.025
2.484,-0.003125,-0.025
2.485,-0.003125,-0.025
2.486,-0.003125,-0.025
2.487,-0.0034375,-0.0246875
2.488,-0.0034375,-0.0246875
2.489,-0.0034375,-0.0246875
2.49,-0.0034375,-0.024375
2.491,-0.0034375,-0.024375
2.492,-0.00375,-0.024375
2.493,-0.00375,-0.0240625
2.494,-0.00375,-0.0240625
2.495,-0.00375,-0.0240625
2.496,-0.00375,-0.02375
2.497,-0.00375,-0.02375
2.498,-0.0040625,-0.02375
2.499,-0.0040625,-0.0234375
2.5,-0.0040625,-0.0234375
2.501,-0.0040625,-0.023125
2.502,-0.0040625,-0.023125
2.503,-0.0040625,-0.023125
2.504,-0.004375,-0.0228125
2.505,-0.004375,-0.0228125
2.506,-0.004375,-0.0228125
2.507,-0.004375,-0.0225
2.508,-0.004375,-0.0225
2.509,-0.004375,-0.0225
2.51,-0.004375,-0.0221875
2.511,-0.004375,-0.0221875
2.512,-0.004375,-0.0221875
2.513,-0.004375,-0.021875
2.514,-0.004375,-0.021875
2.515,-0.0040625,-0.021875
2.516,-0.0040625,-0.0215625
2.517,-0.004375,-0.0215625
2.518,-0.004375,-0.0215625
2.519,-0.004375,-0.0215625
2.52,-0.004375,-0.02125
2.521,-0.004375,-0.02125
2.522,-0.004375,-0.02125
2.523,-0.0040625,-0.0209375
2.524,-0.0040625,-0.0209375
2.525,-0.0040625,-0.0209375
2.526,-0.0040625,-0.0209375
2.527,-0.0040625,-0.0209375
2.528,-0.0040625,-0.0209375
2.529,-0.0040625,-0.0209375
2.53,-0.0040625,-0.020625
2.531,-0.0040625,-0.020625
2.532,-0.0040625,-0.020625
2.533,-0.0040625,-0.020625
2.534,-0.0040625,-0.020625
2.535,-0.0040625,-0.020625
2.536,-0.0040625,-0.020625
2.537,-0.0040625,-0.020625
2.538,-0.0040625,-0.020625
2.539,-0.0040625,-0.020625
2.54,-0.0040625,-0.020625
2.541,-0.0040625,-0.020625
2.542,-0.0040625,-0.020625
2.543,-0.0040625,-0.020625
2.544,-0.004375,-0.020625
2.545,-0.004375,-0.020625
2.546,-0.004375,-0.0209375
2.547,-0.004375,-0.0209375
2.548,-0.004375,-0.0209375
2.549,-0.004375,-0.0209375
2.55,-0.0040625,-0.0209375
2.551,-0.0040625,-0.0209375
2.552,-0.0040625,-0.0209375
2.553,-0.0040625,-0.0209375
2.554,-0.0040625,-0.02125
2.555,-0.0040625,-0.02125
2.556,-0.0040625,-0.02125
2.557,-0.0040625,-0.02125
2.558,-0.0040625,-0.02125
2.559,-0.0040625,-0.0215625
2.56,-0.0040625,-0.0215625
2.561,-0.00375,-0.0215625
2.562,-0.00375,-0.0215625
2.563,-0.00375,-0.021875
2.564,-0.00375,-0.021875
2.565,-0.0034375,-0.021875
2.566,-0.0034375,-0.021875
2.567,-0.0034375,-0.021875
2.568,-0.003125,-0.0221875
2.569,-0.003125,-0.0221875
2.57,-0.003125,-0.0221875
2.571,-0.0028125,-0.0221875
2.572,-0.0028125,-0.0221875
2.573,-0.0028125,-0.0221875
2.574,-0.0025,-0.0221875
2.575,-0.0025,-0.0221875
2.576,-0.0025,-0.0221875
2.577,-0.0021875,-0.0221875
2.578,-0.0021875,-0.0221875
2.579,-0.001875,-0.0221875
2.58,-0.001875,-0.0221875
2.581,-0.001875,-0.021875
2.582,-0.0015625,-0.021875
2.583,-0.0015625,-0.021875
2.584,-0.0015625,-0.0215625
2.585,-0.00125,-0.0215625
2.586,-0.00125,-0.02125
2.587,-0.00125,-0.02125
2.588,-0.00125,-0.0209375
2.589,-0.00125,-0.0209375
2.59,-0.00125,-0.020625
2.591,-0.00125,-0.020625
2.592,-0.00125,-0.0203125
2.593,-0.00125,-0.0203125
2.594,-0.00125,-0.0203125
2.595,-0.00125,-0.02
2.596,-0.00125,-0.02
2.597,-0.00125,-0.0196875
2.598,-0.00125,-0.0196875
2.599,-0.00125,-0.0196875
2.6,-0.00125,-0.0196875
2.601,-0.00125,-0.0196875
2.602,-0.00125,-0.019375
2.603,-0.0015625,-0.019375
2.604,-0.0015625,-0.019375
2.605,-0.0015625,-0.019375
2.606,-0.0015625,-0.019375
2.607,-0.0015625,-0.0190625
2.608,-0.0015625,-0.0190625
2.609,-0.0015625,-0.0190625
2.61,-0.001875,-0.0190625
2.611,-0.001875,-0.0190625
2.612,-0.001875,-0.0190625
2.613,-0.001875,-0.01875
2.614,-0.001875,-0.01875
2.615,-0.001875,-0.01875
2.616,-0.0021875,-0.0184375
2.617,-0.0021875,-0.0184375
2.618,-0.0021875,-0.0184375
2.619,-0.0021875,-0.018125
2.62,-0.0021875,-0.018125
2.621,-0.0021875,-0.0178125
2.622,-0.0025,-0.0178125
2.623,-0.0025,-0.0178125
2.624,-0.0025,-0.0175
2.625,-0.0028125,-0.0175
2.626,-0.0028125,-0.0171875
2.627,-0.0028125,-0.016875
2.628,-0.003125,-0.016875
2.629,-0.003125,-0.016875
2.63,-0.0034375,-0.0165625
2.631,-0.0034375,-0.01625
2.632,-0.00375,-0.01625
2.633,-0.0040625,-0.0159375
2.634,-0.004375,-0.015625
2.635,-0.004375,-0.015625
2.636,-0.0046875,-0.015625
2.637,-0.005,-0.0153125
2.638,-0.005,-0.015
2.639,-0.005625,-0.015
2.64,-0.005625,-0.015
2.641,-0.0059375,-0.0146875
2.642,-0.00625,-0.0146875
2.643,-0.0065625,-0.014375
2.644,-0.0065625,-0.014375
2.645,-0.0071875,-0.014375
2.646,-0.0071875,-0.014375
2.647,-0.0075,-0.014375
2.648,-0.0078125,-0.014375
2.649,-0.0078125,-0.014375
2.65,-0.008125,-0.0140625
2.651,-0.0084375,-0.0140625
2.652,-0.0084375,-0.0140625
2.653,-0.00875,-0.0140625
2.654,-0.0090625,-0.0140625
2.655,-0.0090625,-0.0140625
2.656,-0.009375,-0.014375
2.657,-0.009375,-0.014375
2.658,-0.009375,-0.014375
2.659,-0.0096875,-0.014375
2.66,-0.0096875,-0.014375
2.661,-0.0096875,-0.014375
2.662,-0.0096875,-0.014375
2.663,-0.0096875,-0.014375
2.664,-0.0096875,-0.014375
2.665,-0.0096875,-0.014375
2.666,-0.0096875,-0.014375
2.667,-0.009375,-0.014375
2.668,-0.009375,-0.014375
2.669,-0.009375,-0.014375
2.67,-0.0090625,-0.014375
2.671,-0.0090625,-0.014375
2.672,-0.00875,-0.014375
2.673,-0.00875,-0.014375
2.674,-0.00875,-0.014375
2.675,-0.0084375,-0.014375
2.676,-0.0084375,-0.0146875
2.677,-0.008125,-0.0146875
2.678,-0.0078125,-0.0146875
2.679,-0.0075,-0.0146875
2.68,-0.0075,-0.0146875
2.681,-0.0071875,-0.0146875
2.682,-0.0071875,-0.0146875
2.683,-0.006875,-0.0146875
2.684,-0.0065625,-0.0146875
2.685,-0.0065625,-0.015
2.686,-0.00625,-0.015
2.687,-0.0059375,-0.015
2.688,-0.0059375,-0.015
2.689,-0.005625,-0.015
2.69,-0.005625,-0.015
2.691,-0.005625,-0.015
2.692,-0.0053125,-0.015
2.693,-0.0053125,-0.015
2.694,-0.0053125,-0.015
2.695,-0.0053125,-0.015
2.696,-0.005,-0.015
2.697,-0.005,-0.015
2.698,-0.005,-0.015
2.699,-0.005,-0.015
2.7,-0.0053125,-0.0153125
2.701,-0.0053125,-0.0153125
2.702,-0.0053125,-0.0153125
2.703,-0.0053125,-0.0153125
2.704,-0.0053125,-0.0153125
2.705,-0.0053125,-0.0153125
2.706,-0.005625,-0.015
2.707,-0.005625,-0.015
2.708,-0.005625,-0.015
2.709,-0.0059375,-0.015
2.71,-0.0059375,-0.015
2.711,-0.00625,-0.015
2.712,-0.00625,-0.015
2.713,-0.0065625,-0.015
2.714,-0.0065625,-0.015
2.715,-0.006875,-0.0146875
2.716,-0.006875,-0.0146875
2.717,-0.006875,-0.0146875
2.718,-0.0071875,-0.014375
2.719,-0.0071875,-0.014375
2.72,-0.0075,-0.0140625
2.721,-0.0075,-0.01375
2.722,-0.0075,-0.01375
2.723,-0.0078125,-0.01375
2.724,-0.0078125,-0.0134375
2.725,-0.0078125,-0.013125
2.726,-0.008125,-0.013125
2.727,-0.008125,-0.0128125
2.728,-0.008125,-0.0125
2.729,-0.0084375,-0.0125
2.73,-0.0084375,-0.011875
2.731,-0.0084375,-0.011875
2.732,-0.00875,-0.0115625
2.733,-0.00875,-0.01125
2.734,-0.00875,-0.01125
2.735,-0.00875,-0.0109375
2.736,-0.00875,-0.0109375
2.737,-0.0090625,-0.010625
2.738,-0.0090625,-0.0103125
2.739,-0.0090625,-0.0103125
2.74,-0.009375,-0.01
2.741,-0.009375,-0.0096875
2.742,-0.009375,-0.009375
2.743,-0.0096875,-0.009375
2.744,-0.0096875,-0.009375
2.745,-0.0096875,-0.0090625
2.746,-0.01,-0.00875
2.747,-0.01,-0.00875
2.748,-0.0103125,-0.0084375
2.749,-0.0103125,-0.0084375
2.75,-0.0103125,-0.0084375
2.751,-0.010625,-0.008125
2.752,-0.010625,-0.008125
2.753,-0.0109375,-0.008125
2.754,-0.0109375,-0.0078125
2.755,-0.01125,-0.0078125
2.756,-0.01125,-0.0078125
2.757,-0.01125,-0.0078125
2.758,-0.0115625,-0.0078125
2.759,-0.0115625,-0.0078125
2.76,-0.011875,-0.0078125
2.761,-0.011875,-0.0078125
2.762,-0.011875,-0.0078125
2.763,-0.0121875,-0.0078125
2.764,-0.0125,-0.0078125
2.765,-0.0125,-0.0078125
2.766,-0.0125,-0.0078125
2.767,-0.0128125,-0.008125
2.768,-0.0128125,-0.008125
2.769,-0.013125,-0.008125
2.77,-0.013125,-0.008125
2.771,-0.013125,-0.008125
2.772,-0.0134375,-0.0084375
2.773,-0.0134375,-0.0084375
2.774,-0.01375,-0.0084375
2.775,-0.01375,-0.00875
2.776,-0.0140625,-0.00875
2.777,-0.0140625,-0.0090625
2.778,-0.0140625,-0.009375
2.779,-0.014375,-0.009375
2.78,-0.014375,-0.0096875
2.781,-0.014375,-0.0096875
2.782,-0.014375,-0.01
2.783,-0.0146875,-0.01
2.784,-0.0146875,-0.0103125
2.785,-0.0146875,-0.0103125
2.786,-0.0146875,-0.0103125
2.787,-0.0146875,-0.010625
2.788,-0.0146875,-0.010625
2.789,-0.015,-0.0109375
2.79,-0.015,-0.0109375
2.791,-0.015,-0.0109375
2.792,-0.015,-0.0109375
2.793,-0.015,-0.0109375
2.794,-0.015,-0.0109375
2.795,-0.015,-0.01125
2.796,-0.0153125,-0.01125
2.797,-0.0153125,-0.01125
2.798,-0.0153125,-0.01125
2.799,-0.0153125,-0.01125
2.8,-0.015,-0.01125
2.801,-0.015,-0.01125
2.802,-0.015,-0.01125
2.803,-0.015,-0.01125
2.804,-0.015,-0.0109375
2.805,-0.015,-0.0109375
2.806,-0.015,-0.0109375
2.807,-0.015,-0.0109375
2.808,-0.015,-0.0109375
2.809,-0.015,-0.0109375
2.81,-0.015,-0.010625
2.811,-0.015,-0.010625
2.812,-0.015,-0.0103125
2.813,-0.015,-0.0103125
2.814,-0.015,-0.0103125
2.815,-0.015,-0.0103125
2.816,-0.015,-0.01
2.817,-0.015,-0.01
2.818,-0.015,-0.01
2.819,-0.015,-0.0096875
2.82,-0.015,-0.0096875
2.821,-0.015,-0.0096875
2.822,-0.015,-0.009375
2.823,-0.015,-0.009375
2.824,-0.015,-0.009375
2.825,-0.015,-0.009375
2.826,-0.0146875,-0.0090625
2.827,-0.0146875,-0.0090625
2.828,-0.0146875,-0.0090625
2.829,-0.0146875,-0.0090625
2.83,-0.0146875,-0.0090625
2.831,-0.0146875,-0.00875
2.832,-0.014375,-0.00875
2.833,-0.014375,-0.00875
2.834,-0.014375,-0.00875
2.835,-0.014375,-0.00875
2.836,-0.014375,-0.0084375
2.837,-0.0140625,-0.0084375
2.838,-0.0140625,-0.0084375
2.839,-0.0140625,-0.0084375
2.84,-0.01375,-0.0084375
2.841,-0.01375,-0.0084375
2.842,-0.01375,-0.0084375
2.843,-0.0134375,-0.008125
2.844,-0.0134375,-0.008125
2.845,-0.0134375,-0.008125
2.846,-0.013125,-0.008125
2.847,-0.013125,-0.008125
2.848,-0.013125,-0.008125
2.849,-0.0128125,-0.008125
2.85,-0.0128125,-0.008125
2.851,-0.0128125,-0.008125
2.852,-0.0128125,-0.0078125
2.853,-0.0125,-0.0078125
2.854,-0.0125,-0.0078125
2.855,-0.0125,-0.0078125
2.856,-0.0125,-0.0078125
2.857,-0.0125,-0.0078125
2.858,-0.0125,-0.0078125
2.859,-0.0125,-0.0075
2.86,-0.0125,-0.0075
2.861,-0.0125,-0.0075
2.862,-0.0125,-0.0075
2.863,-0.0125,-0.0075
2.864,-0.0125,-0.0071875
2.865,-0.0128125,-0.0071875
2.866,-0.0128125,-0.006875
2.867,-0.0128125,-0.006875
2.868,-0.013125,-0.006875
2.869,-0.013125,-0.0065625
2.87,-0.013125,-0.0065625
2.871,-0.0134375,-0.0065625
2.872,-0.0134375,-0.00625
2.873,-0.01375,-0.00625
2.874,-0.0140625,-0.0059375
2.875,-0.014375,-0.005625
2.876,-0.014375,-0.005625
2.877,-0.0146875,-0.005625
2.878,-0.015,-0.0053125
2.879,-0.015,-0.0053125
2.88,-0.0153125,-0.005
2.881,-0.015625,-0.005
2.882,-0.0159375,-0.0046875
2.883,-0.0159375,-0.0046875
2.884,-0.0165625,-0.004375
2.885,-0.0165625,-0.004375
2.886,-0.016875,-0.0040625
2.887,-0.016875,-0.0040625
2.888,-0.0175,-0.0040625
2.889,-0.0175,-0.00375
2.89,-0.0175,-0.00375
2.891,-0.0178125,-0.0034375
2.892,-0.018125,-0.0034375
2.893,-0.018125,-0.0034375
2.894,-0.0184375,-0.0034375
2.895,-0.0184375,-0.003125
2.896,-0.01875,-0.003125
2.897,-0.01875,-0.003125
2.898,-0.01875,-0.003125
2.899,-0.0190625,-0.003125
2.9,-0.0190625,-0.003125
2.901,-0.0190625,-0.003125
2.902,-0.0190625,-0.003125
2.903,-0.0190625,-0.003125
2.904,-0.0190625,-0.003125
2.905,-0.0190625,-0.003125
2.906,-0.0190625,-0.003125
2.907,-0.0190625,-0.003125
2.908,-0.0190625,-0.0034375
2.909,-0.01875,-0.0034375
2.91,-0.01875,-0.0034375
2.911,-0.01875,-0.0034375
2.912,-0.0184375,-0.0034375
2.913,-0.0184375,-0.00375
2.914,-0.018125,-0.00375
2.915,-0.018125,-0.00375
2.916,-0.018125,-0.0040625
2.917,-0.0178125,-0.0040625
2.918,-0.0178125,-0.0040625
2.919,-0.0175,-0.004375
2.92,-0.0175,-0.004375
2.921,-0.0171875,-0.004375
2.922,-0.016875,-0.004375
2.923,-0.016875,-0.004375
2.924,-0.0165625,-0.0046875
2.925,-0.0165625,-0.0046875
2.926,-0.01625,-0.0046875
2.927,-0.01625,-0.0046875
2.928,-0.0159375,-0.0046875
2.929,-0.0159375,-0.0046875
2.93,-0.0159375,-0.005
2.931,-0.015625,-0.005
2.932,-0.015625,-0.005
2.933,-0.015625,-0.005
2.934,-0.0153125,-0.005
2.935,-0.0153125,-0.005
2.936,-0.0153125,-0.005
2.937,-0.0153125,-0.005
2.938,-0.015,-0.0053125
2.939,-0.015,-0.0053125
2.94,-0.015,-0.0053125
2.941,-0.015,-0.0053125
2.942,-0.015,-0.0053125
2.943,-0.015,-0.0053125
2.944,-0.015,-0.005625
2.945,-0.0146875,-0.005625
2.946,-0.0146875,-0.005625
2.947,-0.0146875,-0.005625
2.948,-0.0146875,-0.005625
2.949,-0.0146875,-0.005625
2.95,-0.0146875,-0.0059375
2.951,-0.0146875,-0.0059375
2.952,-0.0146875,-0.0059375
2.953,-0.0146875,-0.0059375
2.954,-0.0146875,-0.0059375
2.955,-0.0146875,-0.0059375
2.956,-0.014375,-0.0059375
2.957,-0.014375,-0.00625
2.958,-0.014375,-0.00625
2.959,-0.014375,-0.00625
2.96,-0.014375,-0.00625
2.961,-0.014375,-0.00625
2.962,-0.0140625,-0.00625
2.963,-0.0140625,-0.00625
2.964,-0.0140625,-0.00625
2.965,-0.01375,-0.00625
2.966,-0.01375,-0.00625
2.967,-0.01375,-0.00625
2.968,-0.0134375,-0.00625
2.969,-0.0134375,-0.00625
2.97,-0.013125,-0.00625
2.971,-0.013125,-0.00625
2.972,-0.013125,-0.0059375
2.973,-0.0128125,-0.0059375
2.974,-0.0125,-0.0059375
2.975,-0.0125,-0.005625
2.976,-0.0125,-0.005625
2.977,-0.0121875,-0.0053125
2.978,-0.0121875,-0.0053125
2.979,-0.011875,-0.0053125
2.98,-0.011875,-0.005
2.981,-0.011875,-0.005
2.982,-0.0115625,-0.005
2.983,-0.0115625,-0.0046875
2.984,-0.01125,-0.0046875
2.985,-0.01125,-0.0046875
2.986,-0.01125,-0.0046875
2.987,-0.0109375,-0.004375
2.988,-0.0109375,-0.004375
2.989,-0.0109375,-0.004375
2.99,-0.0109375,-0.004375
2.991,-0.0109375,-0.0040625
2.992,-0.010625,-0.0040625
2.993,-0.010625,-0.0040625
2.994,-0.010625,-0.00375
2.995,-0.010625,-0.00375
2.996,-0.0109375,-0.00375
2.997,-0.0109375,-0.00375
2.998,-0.0109375,-0.0034375
2.999,-0.0109375,-0.0034375
3,-0.0109375,-0.0034375
3.001,-0.0109375,-0.0034375
3.002,-0.0109375,-0.0034375
3.003,-0.0109375,-0.003125
3.004,-0.0109375,-0.003125
3.005,-0.01125,-0.003125
3.006,-0.01125,-0.003125
3.007,-0.01125,-0.003125
3.008,-0.01125,-0.003125
3.009,-0.01125,-0.003125
3.01,-0.01125,-0.003125
3.011,-0.0115625,-0.003125
3.012,-0.0115625,-0.0028125
3.013,-0.0115625,-0.0028125
3.014,-0.0115625,-0.0028125
3.015,-0.0115625,-0.0028125
3.016,-0.0115625,-0.0028125
3.017,-0.0115625,-0.003125
3.018,-0.0115625,-0.003125
3.019,-0.0115625,-0.003125
3.02,-0.0115625,-0.003125
3.021,-0.0115625,-0.003125
3.022,-0.0115625,-0.003125
3.023,-0.0115625,-0.003125
3.024,-0.0115625,-0.003125
3.025,-0.0115625,-0.003125
3.026,-0.01125,-0.003125
3.027,-0.01125,-0.0034375
3.028,-0.01125,-0.0034375
3.029,-0.01125,-0.0034375
3.03,-0.01125,-0.0034375
3.031,-0.01125,-0.0034375
3.032,-0.01125,-0.00375
3.033,-0.0109375,-0.00375
3.034,-0.0109375,-0.00375
3.035,-0.0109375,-0.00375
3.036,-0.0109375,-0.00375
3.037,-0.0109375,-0.00375
3.038,-0.0109375,-0.0040625
3.039,-0.0109375,-0.0040625
3.04,-0.0109375,-0.00375
3.041,-0.0109375,-0.00375
3.042,-0.0109375,-0.00375
3.043,-0.01125,-0.00375
3.044,-0.01125,-0.00375
3.045,-0.0109375,-0.00375
3.046,-0.0109375,-0.00375
3.047,-0.01125,-0.00375
3.048,-0.01125,-0.00375
3.049,-0.01125,-0.0034375
3.05,-0.01125,-0.0034375
3.051,-0.01125,-0.0034375
3.052,-0.01125,-0.0034375
3.053,-0.01125,-0.0034375
3.054,-0.01125,-0.003125
3.055,-0.01125,-0.003125
3.056,-0.01125,-0.003125
3.057,-0.01125,-0.003125
3.058,-0.01125,-0.003125
3.059,-0.01125,-0.003125
3.06,-0.01125,-0.003125
3.061,-0.01125,-0.0028125
3.062,-0.01125,-0.0028125
3.063,-0.01125,-0.0028125
3.064,-0.01125,-0.0028125
3.065,-0.01125,-0.0028125
3.066,-0.01125,-0.0028125
3.067,-0.01125,-0.0025
3.068,-0.01125,-0.0025
3.069,-0.01125,-0.0025
3.07,-0.01125,-0.0025
3.071,-0.01125,-0.0025
3.072,-0.01125,-0.0021875
3.073,-0.01125,-0.0021875
3.074,-0.01125,-0.0021875
3.075,-0.01125,-0.0021875
3.076,-0.01125,-0.001875
3.077,-0.01125,-0.001875
3.078,-0.01125,-0.0015625
3.079,-0.01125,-0.0015625
3.08,-0.01125,-0.0015625
3.081,-0.01125,-0.00125
3.082,-0.01125,-0.00125
3.083,-0.01125,-0.00125
3.084,-0.01125,-0.0009375
3.085,-0.01125,-0.0009375
3.086,-0.01125,-0.0009375
3.087,-0.01125,-0.000625
3.088,-0.01125,-0.000625
3.089,-0.01125,-0.0003125
3.09,-0.01125,-0.0003125
3.091,-0.01125,-0.0003125
3.092,-0.0109375,-0.0003125
3.093,-0.0109375,0
3.094,-0.0109375,0
3.095,-0.0109375,0
3.096,-0.0109375,0.0003125
3.097,-0.0109375,0.0003125
3.098,-0.0109375,0.0003125
3.099,-0.0109375,0.000625
3.1,-0.010625,0.000625
3.101,-0.010625,0.000625
3.102,-0.010625,0.000625
3.103,-0.010625,0.000625
3.104,-0.010625,0.000625
3.105,-0.0103125,0.0009375
3.106,-0.0103125,0.0009375
3.107,-0.0103125,0.0009375
3.108,-0.0103125,0.0009375
3.109,-0.0103125,0.0009375
3.11,-0.0103125,0.0009375
3.111,-0.0103125,0.00125
3.112,-0.0103125,0.00125
3.113,-0.0103125,0.00125
3.114,-0.0103125,0.00125
3.115,-0.0103125,0.00125
3.116,-0.0103125,0.00125
3.117,-0.0103125,0.00125
3.118,-0.0103125,0.0015625
3.119,-0.0103125,0.0015625
3.12,-0.010625,0.0015625
3.121,-0.010625,0.0015625
3.122,-0.010625,0.0015625
3.123,-0.010625,0.001875
3.124,-0.010625,0.001875
3.125,-0.0109375,0.001875
3.126,-0.0109375,0.001875
3.127,-0.0109375,0.001875
3.128,-0.0109375,0.001875
3.129,-0.0109375,0.001875
3.13,-0.01125,0.001875
3.131,-0.01125,0.001875
3.132,-0.01125,0.001875
3.133,-0.01125,0.0015625
3.134,-0.0115625,0.0015625
3.135,-0.0115625,0.0015625
3.136,-0.0115625,0.0015625
3.137,-0.011875,0.0015625
3.138,-0.011875,0.0015625
3.139,-0.011875,0.00125
3.14,-0.0121875,0.00125
3.141,-0.0121875,0.00125
3.142,-0.0121875,0.0009375
3.143,-0.0125,0.0009375
3.144,-0.0125,0.000625
3.145,-0.0125,0.000625
3.146,-0.0128125,0.000625
3.147,-0.0128125,0.0003125
3.148,-0.013125,0.0003125
3.149,-0.013125,0.0003125
3.15,-0.0134375,0.0003125
3.151,-0.0134375,0.0003125
3.152,-0.01375,0
3.153,-0.0140625,0
3.154,-0.014375,0
3.155,-0.014375,0
3.156,-0.014375,0
3.157,-0.0146875,0
3.158,-0.015,0
3.159,-0.0153125,0
3.16,-0.0153125,0.0003125
3.161,-0.015625,0.0003125
3.162,-0.0159375,0.0003125
3.163,-0.0159375,0.0003125
3.164,-0.0165625,0.0003125
3.165,-0.0165625,0.0003125
3.166,-0.016875,0.000625
3.167,-0.0171875,0.000625
3.168,-0.0171875,0.000625
3.169,-0.0175,0.0009375
3.17,-0.0178125,0.0009375
3.171,-0.0178125,0.0009375
3.172,-0.018125,0.00125
3.173,-0.018125,0.00125
3.174,-0.0184375,0.00125
3.175,-0.01875,0.00125
3.176,-0.01875,0.0015625
3.177,-0.0190625,0.0015625
3.178,-0.0190625,0.0015625
3.179,-0.019375,0.001875
3.18,-0.019375,0.001875
3.181,-0.019375,0.001875
3.182,-0.0196875,0.0021875
3.183,-0.0196875,0.0021875
3.184,-0.0196875,0.0021875
3.185,-0.0196875,0.0025
3.186,-0.0196875,0.0025
3.187,-0.02,0.0025
3.188,-0.02,0.0025
3.189,-0.02,0.0025
3.19,-0.02,0.0028125
3.191,-0.0196875,0.0028125
3.192,-0.0196875,0.0028125
3.193,-0.0196875,0.003125
3.194,-0.0196875,0.003125
3.195,-0.0196875,0.0034375
3.196,-0.0196875,0.0034375
3.197,-0.0196875,0.0034375
3.198,-0.0196875,0.00375
3.199,-0.0196875,0.00375
3.2,-0.019375,0.0040625
3.201,-0.019375,0.0040625
3.202,-0.019375,0.004375
3.203,-0.0190625,0.004375
3.204,-0.0190625,0.004375
3.205,-0.0190625,0.0046875
3.206,-0.01875,0.0046875
3.207,-0.01875,0.005
3.208,-0.01875,0.005
3.209,-0.01875,0.0053125
3.21,-0.0184375,0.0053125
3.211,-0.0184375,0.0053125
3.212,-0.0184375,0.005625
3.213,-0.0184375,0.005625
3.214,-0.018125,0.005625
3.215,-0.018125,0.0059375
3.216,-0.018125,0.0059375
3.217,-0.0178125,0.0059375
3.218,-0.0178125,0.0059375
3.219,-0.0178125,0.00625
3.22,-0.0178125,0.00625
3.221,-0.0175,0.00625
3.222,-0.0175,0.00625
3.223,-0.0175,0.00625
3.224,-0.0175,0.00625
3.225,-0.0171875,0.0065625
3.226,-0.0171875,0.0065625
3.227,-0.0171875,0.0065625
3.228,-0.0171875,0.0065625
3.229,-0.0171875,0.00625
3.23,-0.016875,0.00625
3.231,-0.016875,0.00625
3.232,-0.016875,0.00625
3.233,-0.016875,0.00625
3.234,-0.016875,0.00625
3.235,-0.016875,0.00625
3.236,-0.0165625,0.0059375
3.237,-0.0165625,0.0059375
3.238,-0.0165625,0.005625
3.239,-0.0165625,0.0053125
3.24,-0.0165625,0.005
3.241,-0.0165625,0.0046875
3.242,-0.0165625,0.0040625
3.243,-0.01625,0.0034375
3.244,-0.01625,0.0028125
3.245,-0.01625,0.001875
3.246,-0.01625,0.000625
3.247,-0.01625,-0.000625
3.248,-0.01625,-0.001875
3.249,-0.01625,-0.0034375
3.25,-0.01625,-0.005625
3.251,-0.01625,-0.0075
3.252,-0.01625,-0.01
3.253,-0.01625,-0.0125
3.254,-0.01625,-0.015625
3.255,-0.01625,-0.01875
3.256,-0.01625,-0.0221875
3.257,-0.0159375,-0.0259375
3.258,-0.0159375,-0.03
3.259,-0.0159375,-0.0340625
3.26,-0.015625,-0.03875
3.261,-0.015625,-0.0434375
3.262,-0.015625,-0.0484375
3.263,-0.0153125,-0.0540625
3.264,-0.0153125,-0.059375
3.265,-0.015,-0.0653125
3.266,-0.015,-0.0715625
3.267,-0.0146875,-0.0775
3.268,-0.0146875,-0.0840625
3.269,-0.014375,-0.090625
3.27,-0.0140625,-0.0971875
3.271,-0.0140625,-0.104375
3.272,-0.01375,-0.1109375
3.273,-0.0134375,-0.1178125
3.274,-0.0134375,-0.125
3.275,-0.0128125,-0.1321875
3.276,-0.0128125,-0.1390625
3.277,-0.0125,-0.14625
3.278,-0.0121875,-0.1528125
3.279,-0.0121875,-0.1596875
3.28,-0.0115625,-0.1659375
3.281,-0.0115625,-0.1725
3.282,-0.01125,-0.1784375
3.283,-0.0109375,-0.184375
3.284,-0.010625,-0.19
3.285,-0.010625,-0.1953125
3.286,-0.01,-0.2003125
3.287,-0.01,-0.205
3.288,-0.0096875,-0.2090625
3.289,-0.0096875,-0.2128125
3.29,-0.009375,-0.2165625
3.291,-0.0090625,-0.2196875
3.292,-0.0090625,-0.2221875
3.293,-0.00875,-0.2246875
3.294,-0.00875,-0.22625
3.295,-0.00875,-0.2275
3.296,-0.0084375,-0.22875
3.297,-0.0084375,-0.2290625
3.298,-0.0084375,-0.2290625
3.299,-0.0084375,-0.2290625
3.3,-0.008125,-0.228125
3.301,-0.008125,-0.226875
3.302,-0.008125,-0.2253125
3.303,-0.008125,-0.223125
3.304,-0.008125,-0.220625
3.305,-0.008125,-0.2178125
3.306,-0.0084375,-0.214375
3.307,-0.0084375,-0.210625
3.308,-0.0084375,-0.206875
3.309,-0.0084375,-0.2021875
3.31,-0.0084375,-0.1978125
3.311,-0.0084375,-0.1928125
3.312,-0.0084375,-0.1871875
3.313,-0.0084375,-0.181875
3.314,-0.0084375,-0.1759375
3.315,-0.0084375,-0.17
3.316,-0.0084375,-0.1640625
3.317,-0.0084375,-0.1578125
3.318,-0.0084375,-0.15125
3.319,-0.0084375,-0.1446875
3.32,-0.0084375,-0.138125
3.321,-0.0084375,-0.1309375
3.322,-0.0084375,-0.124375
3.323,-0.00875,-0.1171875
3.324,-0.00875,-0.110625
3.325,-0.00875,-0.1034375
3.326,-0.00875,-0.096875
3.327,-0.0084375,-0.0896875
3.328,-0.0084375,-0.083125
3.329,-0.0084375,-0.07625
3.33,-0.0084375,-0.0696875
3.331,-0.0084375,-0.0634375
3.332,-0.0084375,-0.0571875
3.333,-0.0084375,-0.0509375
3.334,-0.0084375,-0.0446875
3.335,-0.0084375,-0.0390625
3.336,-0.008125,-0.033125
3.337,-0.008125,-0.028125
3.338,-0.008125,-0.0228125
3.339,-0.008125,-0.0178125
3.34,-0.008125,-0.0128125
3.341,-0.0078125,-0.008125
3.342,-0.0078125,-0.0040625
3.343,-0.0078125,0
3.344,-0.0078125,0.0040625
3.345,-0.0078125,0.0075
3.346,-0.0075,0.0109375
3.347,-0.0075,0.014375
3.348,-0.0075,0.0171875
3.349,-0.0075,0.02
3.35,-0.0075,0.0225
3.351,-0.0075,0.0246875
3.352,-0.0075,0.026875
3.353,-0.0075,0.02875
3.354,-0.0071875,0.0303125
3.355,-0.0071875,0.0321875
3.356,-0.0071875,0.0334375
3.357,-0.0071875,0.0346875
3.358,-0.0071875,0.0359375
3.359,-0.0071875,0.0365625
3.36,-0.0071875,0.0375
3.361,-0.0071875,0.0378125
3.362,-0.0071875,0.03875
3.363,-0.006875,0.0390625
3.364,-0.006875,0.039375
3.365,-0.006875,0.0396875
3.366,-0.006875,0.0396875
3.367,-0.006875,0.0396875
3.368,-0.006875,0.0396875
3.369,-0.006875,0.039375
3.37,-0.006875,0.039375
3.371,-0.006875,0.0390625
3.372,-0.006875,0.03875
3.373,-0.006875,0.0384375
3.374,-0.006875,0.038125
3.375,-0.006875,0.0378125
3.376,-0.006875,0.0375
3.377,-0.006875,0.036875
3.378,-0.006875,0.0365625
3.379,-0.006875,0.03625
3.38,-0.006875,0.035625
3.381,-0.006875,0.0353125
3.382,-0.006875,0.035
3.383,-0.006875,0.0346875
3.384,-0.006875,0.0340625
3.385,-0.0065625,0.03375
3.386,-0.0065625,0.0334375
3.387,-0.0065625,0.0328125
3.388,-0.0065625,0.0328125
3.389,-0.0065625,0.0325
3.39,-0.00625,0.031875
3.391,-0.00625,0.031875
3.392,-0.00625,0.0315625
3.393,-0.00625,0.0309375
3.394,-0.0059375,0.0309375
3.395,-0.0059375,0.030625
3.396,-0.0059375,0.0303125
3.397,-0.005625,0.0303125
3.398,-0.005625,0.03
3.399,-0.005625,0.0296875
3.4,-0.005625,0.0296875
3.401,-0.0053125,0.029375
3.402,-0.0053125,0.029375
3.403,-0.0053125,0.0290625
3.404,-0.0053125,0.0290625
3.405,-0.0053125,0.0290625
3.406,-0.005,0.02875
3.407,-0.005,0.02875
3.408,-0.005,0.02875
3.409,-0.005,0.02875
3.41,-0.005,0.0284375
3.411,-0.005,0.0284375
3.412,-0.005,0.0284375
3.413,-0.005,0.0284375
3.414,-0.005,0.0284375
3.415,-0.005,0.028125
3.416,-0.005,0.028125
3.417,-0.005,0.028125
3.418,-0.005,0.028125
3.419,-0.005,0.028125
3.42,-0.005,0.028125
3.421,-0.005,0.0278125
3.422,-0.0053125,0.0278125
3.423,-0.0053125,0.0278125
3.424,-0.0053125,0.0278125
3.425,-0.0053125,0.0278125
3.426,-0.0053125,0.0275
3.427,-0.005625,0.0275
3.428,-0.005625,0.0275
3.429,-0.005625,0.0275
3.43,-0.005625,0.0275
3.431,-0.005625,0.0275
3.432,-0.005625,0.0271875
3.433,-0.005625,0.0271875
3.434,-0.005625,0.0271875
3.435,-0.005625,0.0271875
3.436,-0.005625,0.026875
3.437,-0.0059375,0.026875
3.438,-0.0059375,0.026875
3.439,-0.0059375,0.0265625
3.44,-0.0059375,0.0265625
3.441,-0.0059375,0.02625
3.442,-0.0059375,0.02625
3.443,-0.0059375,0.02625
3.444,-0.0059375,0.0259375
3.445,-0.0059375,0.0259375
3.446,-0.0059375,0.025625
3.447,-0.0059375,0.025625
3.448,-0.00625,0.0253125
3.449,-0.00625,0.025
3.45,-0.00625,0.025
3.451,-0.00625,0.025
3.452,-0.00625,0.0246875
3.453,-0.00625,0.024375
3.454,-0.00625,0.0240625
3.455,-0.0065625,0.0240625
3.456,-0.0065625,0.0240625
3.457,-0.0065625,0.02375
3.458,-0.0065625,0.0234375
3.459,-0.0065625,0.0234375
3.46,-0.006875,0.023125
3.461,-0.006875,0.023125
3.462,-0.006875,0.023125
3.463,-0.006875,0.0228125
3.464,-0.006875,0.0228125
3.465,-0.0071875,0.0228125
3.466,-0.0071875,0.0225
3.467,-0.0071875,0.0225
3.468,-0.0071875,0.0225
3.469,-0.0071875,0.0225
3.47,-0.0071875,0.0228125
3.471,-0.0071875,0.0228125
3.472,-0.0071875,0.0228125
3.473,-0.0071875,0.0228125
3.474,-0.0071875,0.0228125
3.475,-0.0071875,0.0228125
3.476,-0.0071875,0.0228125
3.477,-0.0071875,0.0228125
3.478,-0.0071875,0.023125
3.479,-0.0071875,0.023125
3.48,-0.0071875,0.023125
3.481,-0.0071875,0.023125
3.482,-0.0071875,0.023125
3.483,-0.0071875,0.0234375
3.484,-0.006875,0.0234375
3.485,-0.006875,0.0234375
3.486,-0.006875,0.02375
3.487,-0.006875,0.02375
3.488,-0.006875,0.02375
3.489,-0.006875,0.0240625
3.49,-0.006875,0.0240625
3.491,-0.006875,0.0240625
3.492,-0.006875,0.024375
3.493,-0.006875,0.024375
3.494,-0.006875,0.024375
3.495,-0.006875,0.0246875
3.496,-0.006875,0.0246875
3.497,-0.006875,0.0246875
3.498,-0.006875,0.0246875
3.499,-0.0071875,0.0246875
3.5,-0.0071875,0.025
3.501,-0.0071875,0.025
3.502,-0.0071875,0.025
3.503,-0.0071875,0.025
3.504,-0.0071875,0.025
3.505,-0.0071875,0.0253125
3.506,-0.0071875,0.0253125
3.507,-0.0075,0.0253125
3.508,-0.0075,0.025625
3.509,-0.0075,0.025625
3.51,-0.0075,0.0259375
3.511,-0.0078125,0.0259375
3.512,-0.0078125,0.02625
3.513,-0.0078125,0.02625
3.514,-0.008125,0.02625
3.515,-0.008125,0.0265625
3.516,-0.0084375,0.0265625
3.517,-0.0084375,0.026875
3.518,-0.0084375,0.026875
3.519,-0.00875,0.026875
3.52,-0.00875,0.0271875
3.521,-0.00875,0.0271875
3.522,-0.0090625,0.0271875
3.523,-0.0090625,0.0271875
3.524,-0.009375,0.0271875
3.525,-0.009375,0.0271875
3.526,-0.009375,0.0271875
3.527,-0.0096875,0.0271875
3.528,-0.0096875,0.0271875
3.529,-0.0096875,0.0271875
3.53,-0.01,0.0271875
3.531,-0.01,0.0271875
3.532,-0.01,0.0271875
3.533,-0.01,0.0271875
3.534,-0.0103125,0.0271875
3.535,-0.0103125,0.026875
3.536,-0.0103125,0.026875
3.537,-0.0103125,0.026875
3.538,-0.010625,0.0265625
3.539,-0.010625,0.0265625
3.54,-0.010625,0.02625
3.541,-0.010625,0.02625
3.542,-0.010625,0.0259375
3.543,-0.010625,0.0259375
3.544,-0.0109375,0.025625
3.545,-0.0109375,0.0253125
3.546,-0.0109375,0.0253125
3.547,-0.0109375,0.025
3.548,-0.0109375,0.025
3.549,-0.0109375,0.024375
3.55,-0.01125,0.024375
3.551,-0.01125,0.0240625
3.552,-0.01125,0.02375
3.553,-0.01125,0.02375
3.554,-0.01125,0.023125
3.555,-0.01125,0.023125
3.556,-0.0115625,0.0225
3.557,-0.0115625,0.0225
3.558,-0.0115625,0.0221875
3.559,-0.0115625,0.021875
3.56,-0.0115625,0.0215625
3.561,-0.0115625,0.02125
3.562,-0.0115625,0.0209375
3.563,-0.0115625,0.0209375
3.564,-0.011875,0.0203125
3.565,-0.011875,0.0203125
3.566,-0.011875,0.02
3.567,-0.011875,0.0196875
3.568,-0.011875,0.0196875
3.569,-0.0115625,0.019375
3.57,-0.0115625,0.0190625
3.571,-0.0115625,0.01875
3.572,-0.0115625,0.01875
3.573,-0.0115625,0.0184375
3.574,-0.0115625,0.0184375
3.575,-0.0115625,0.018125
3.576,-0.0115625,0.018125
3.577,-0.0115625,0.018125
3.578,-0.0115625,0.0178125
3.579,-0.0115625,0.0178125
3.58,-0.0115625,0.0178125
3.581,-0.0115625,0.0175
3.582,-0.0115625,0.0175
3.583,-0.01125,0.0175
3.584,-0.01125,0.0175
3.585,-0.01125,0.0175
3.586,-0.01125,0.0175
3.587,-0.01125,0.0175
3.588,-0.01125,0.0178125
3.589,-0.01125,0.0178125
3.59,-0.01125,0.0178125
3.591,-0.01125,0.0178125
3.592,-0.01125,0.0175
3.593,-0.01125,0.0175
3.594,-0.01125,0.0175
3.595,-0.0115625,0.0175
3.596,-0.0115625,0.0175
3.597,-0.0115625,0.0175
3.598,-0.0115625,0.0175
3.599,-0.0115625,0.0175
3.6,-0.0115625,0.0171875
3.601,-0.011875,0.0171875
3.602,-0.011875,0.0171875
3.603,-0.011875,0.0171875
3.604,-0.0121875,0.0171875
3.605,-0.0121875,0.016875
3.606,-0.0125,0.016875
3.607,-0.0125,0.016875
3.608,-0.0125,0.016875
3.609,-0.0128125,0.016875
3.61,-0.0128125,0.016875
3.611,-0.013125,0.0171875
3.612,-0.013125,0.0171875
3.613,-0.0134375,0.0171875
3.614,-0.01375,0.0171875
3.615,-0.01375,0.0171875
3.616,-0.0140625,0.0175
3.617,-0.0140625,0.0175
3.618,-0.014375,0.0175
3.619,-0.0146875,0.0178125
3.62,-0.0146875,0.0178125
3.621,-0.0153125,0.018125
3.622,-0.0153125,0.0184375
3.623,-0.015625,0.0184375
3.624,-0.0159375,0.01875
3.625,-0.01625,0.0190625
3.626,-0.01625,0.019375
3.627,-0.0165625,0.0196875
3.628,-0.016875,0.02
3.629,-0.016875,0.0203125
3.63,-0.0171875,0.020625
3.631,-0.0175,0.0209375
3.632,-0.0175,0.02125
3.633,-0.0178125,0.0215625
3.634,-0.0178125,0.0221875
3.635,-0.0178125,0.0221875
3.636,-0.018125,0.0228125
3.637,-0.018125,0.0228125
3.638,-0.0184375,0.0234375
3.639,-0.0184375,0.02375
3.64,-0.0184375,0.02375
3.641,-0.0184375,0.0240625
3.642,-0.0184375,0.0246875
3.643,-0.0184375,0.025
3.644,-0.0184375,0.025
3.645,-0.0184375,0.0253125
3.646,-0.0184375,0.025625
3.647,-0.0184375,0.025625
3.648,-0.018125,0.0259375
3.649,-0.018125,0.02625
3.65,-0.018125,0.02625
3.651,-0.0178125,0.02625
3.652,-0.0178125,0.0265625
3.653,-0.0178125,0.0265625
3.654,-0.0175,0.0265625
3.655,-0.0175,0.0265625
3.656,-0.0171875,0.0265625
3.657,-0.016875,0.0265625
3.658,-0.016875,0.0265625
3.659,-0.0165625,0.02625
3.66,-0.0165625,0.02625
3.661,-0.01625,0.02625
3.662,-0.01625,0.0259375
3.663,-0.0159375,0.025625
3.664,-0.0159375,0.025625
3.665,-0.0159375,0.025
3.666,-0.015625,0.025
3.667,-0.015625,0.0246875
3.668,-0.015625,0.024375
3.669,-0.0153125,0.0240625
3.67,-0.0153125,0.02375
3.671,-0.0153125,0.0234375
3.672,-0.0153125,0.023125
3.673,-0.0153125,0.0228125
3.674,-0.015,0.0225
3.675,-0.015,0.021875
3.676,-0.015,0.021875
3.677,-0.015,0.0215625
3.678,-0.015,0.0209375
3.679,-0.015,0.020625
3.68,-0.015,0.0203125
3.681,-0.015,0.02
3.682,-0.015,0.0196875
3.683,-0.015,0.019375
3.684,-0.015,0.019375
3.685,-0.015,0.0190625
3.686,-0.015,0.01875
3.687,-0.015,0.0184375
3.688,-0.015,0.0184375
3.689,-0.0146875,0.0184375
3.69,-0.0146875,0.0184375
3.691,-0.0146875,0.0184375
3.692,-0.0146875,0.0184375
3.693,-0.0146875,0.0184375
3.694,-0.0146875,0.0184375
3.695,-0.0146875,0.0184375
3.696,-0.0146875,0.0184375
3.697,-0.0146875,0.0184375
3.698,-0.0146875,0.01875
3.699,-0.0146875,0.01875
3.7,-0.0146875,0.0190625
3.701,-0.0146875,0.0190625
3.702,-0.0146875,0.019375
3.703,-0.0146875,0.019375
3.704,-0.0146875,0.019375
3.705,-0.0146875,0.0196875
3.706,-0.0146875,0.0196875
3.707,-0.0146875,0.0196875
3.708,-0.0146875,0.02
3.709,-0.0146875,0.02
3.71,-0.0146875,0.0203125
3.711,-0.0146875,0.0203125
3.712,-0.0146875,0.0203125
3.713,-0.0146875,0.0203125
3.714,-0.0146875,0.0203125
3.715,-0.0146875,0.020625
3.716,-0.0146875,0.020625
3.717,-0.015,0.020625
3.718,-0.015,0.0203125
3.719,-0.015,0.0203125
3.72,-0.015,0.0203125
3.721,-0.015,0.0203125
3.722,-0.015,0.02
3.723,-0.015,0.02
3.724,-0.015,0.02
3.725,-0.015,0.0196875
3.726,-0.015,0.0196875
3.727,-0.015,0.019375
3.728,-0.015,0.0190625
3.729,-0.015,0.0190625
3.73,-0.0146875,0.01875
3.731,-0.0146875,0.0184375
3.732,-0.0146875,0.018125
3.733,-0.0146875,0.018125
3.734,-0.0146875,0.0178125
3.735,-0.0146875,0.0175
3.736,-0.0146875,0.0175
3.737,-0.0146875,0.0171875
3.738,-0.0146875,0.016875
3.739,-0.0146875,0.016875
3.74,-0.0146875,0.0165625
3.741,-0.014375,0.01625
3.742,-0.014375,0.01625
3.743,-0.014375,0.0159375
3.744,-0.0140625,0.0159375
3.745,-0.0140625,0.015625
3.746,-0.0140625,0.015625
3.747,-0.01375,0.015625
3.748,-0.01375,0.0153125
3.749,-0.01375,0.0153125
3.75,-0.0134375,0.015
3.751,-0.0134375,0.015
3.752,-0.013125,0.015
3.753,-0.013125,0.015
3.754,-0.0128125,0.015
3.755,-0.0125,0.015
3.756,-0.0125,0.015
3.757,-0.0121875,0.0146875
3.758,-0.0121875,0.0146875
3.759,-0.011875,0.015
3.76,-0.011875,0.015
3.761,-0.0115625,0.015
3.762,-0.0115625,0.015
3.763,-0.0115625,0.015
3.764,-0.01125,0.015
3.765,-0.01125,0.015
3.766,-0.01125,0.015
3.767,-0.0109375,0.015
3.768,-0.0109375,0.015
3.769,-0.0109375,0.015
3.77,-0.0109375,0.0153125
3.771,-0.0109375,0.0153125
3.772,-0.0109375,0.0153125
3.773,-0.0109375,0.0153125
3.774,-0.0109375,0.0153125
3.775,-0.0109375,0.0153125
3.776,-0.0109375,0.0153125
3.777,-0.0109375,0.0153125
3.778,-0.0109375,0.015625
3.779,-0.0109375,0.015625
3.78,-0.0109375,0.015625
3.781,-0.01125,0.0153125
3.782,-0.01125,0.0153125
3.783,-0.01125,0.015625
3.784,-0.01125,0.015625
3.785,-0.01125,0.015625
3.786,-0.0115625,0.015625
3.787,-0.0115625,0.015625
3.788,-0.0115625,0.015625
3.789,-0.011875,0.015625
3.79,-0.011875,0.015625
3.791,-0.011875,0.015625
3.792,-0.0121875,0.015625
3.793,-0.0121875,0.015625
3.794,-0.0121875,0.015625
3.795,-0.0125,0.015625
3.796,-0.0125,0.0159375
3.797,-0.0128125,0.0159375
3.798,-0.0128125,0.0159375
3.799,-0.0128125,0.0159375
3.8,-0.013125,0.0159375
3.801,-0.013125,0.01625
3.802,-0.013125,0.01625
3.803,-0.0134375,0.01625
3.804,-0.0134375,0.01625
3.805,-0.0134375,0.01625
3.806,-0.0134375,0.0165625
3.807,-0.01375,0.0165625
3.808,-0.01375,0.016875
3.809,-0.01375,0.016875
3.81,-0.01375,0.016875
3.811,-0.01375,0.0171875
3.812,-0.01375,0.0171875
3.813,-0.01375,0.0175
3.814,-0.01375,0.0175
3.815,-0.01375,0.0175
3.816,-0.01375,0.0178125
3.817,-0.01375,0.0178125
3.818,-0.01375,0.0178125
3.819,-0.0134375,0.018125
3.82,-0.0134375,0.018125
3.821,-0.0134375,0.0184375
3.822,-0.0134375,0.0184375
3.823,-0.0134375,0.0184375
3.824,-0.013125,0.01875
3.825,-0.013125,0.01875
3.826,-0.0128125,0.01875
3.827,-0.0128125,0.0190625
3.828,-0.0128125,0.0190625
3.829,-0.0125,0.0190625
3.83,-0.0125,0.019375
3.831,-0.0125,0.019375
3.832,-0.0121875,0.019375
3.833,-0.0121875,0.019375
3.834,-0.011875,0.019375
3.835,-0.011875,0.019375
3.836,-0.011875,0.019375
3.837,-0.0115625,0.019375
3.838,-0.0115625,0.019375
3.839,-0.0115625,0.019375
3.84,-0.01125,0.019375
3.841,-0.01125,0.019375
3.842,-0.01125,0.0190625
3.843,-0.01125,0.0190625
3.844,-0.0109375,0.01875
3.845,-0.0109375,0.01875
3.846,-0.0109375,0.0184375
3.847,-0.0109375,0.018125
3.848,-0.0109375,0.018125
3.849,-0.0109375,0.0178125
3.85,-0.010625,0.0175
3.851,-0.010625,0.0175
3.852,-0.010625,0.016875
3.853,-0.010625,0.0165625
3.854,-0.010625,0.0165625
3.855,-0.010625,0.01625
3.856,-0.010625,0.015625
3.857,-0.010625,0.015625
3.858,-0.010625,0.015
3.859,-0.0109375,0.0146875
3.86,-0.0109375,0.014375
3.861,-0.0109375,0.0140625
3.862,-0.0109375,0.01375
3.863,-0.0109375,0.013125
3.864,-0.0109375,0.0128125
3.865,-0.0109375,0.0128125
3.866,-0.01125,0.0121875
3.867,-0.01125,0.011875
3.868,-0.01125,0.0115625
3.869,-0.01125,0.01125
3.87,-0.01125,0.01125
3.871,-0.0115625,0.010625
3.872,-0.0115625,0.010625
3.873,-0.0115625,0.0103125
3.874,-0.0115625,0.01
3.875,-0.011875,0.01
3.876,-0.011875,0.0096875
3.877,-0.011875,0.009375
3.878,-0.011875,0.0090625
3.879,-0.011875,0.0090625
3.88,-0.0121875,0.00875
3.881,-0.0121875,0.00875
3.882,-0.0121875,0.0084375
3.883,-0.0121875,0.008125
3.884,-0.0121875,0.008125
3.885,-0.0121875,0.0078125
3.886,-0.0121875,0.0075
3.887,-0.011875,0.0075
3.888,-0.011875,0.0071875
3.889,-0.011875,0.006875
3.89,-0.011875,0.006875
3.891,-0.011875,0.0065625
3.892,-0.0115625,0.00625
3.893,-0.0115625,0.0059375
3.894,-0.0115625,0.0059375
3.895,-0.01125,0.005625
3.896,-0.01125,0.0053125
3.897,-0.01125,0.0053125
3.898,-0.0109375,0.0046875
3.899,-0.0109375,0.0046875
3.9,-0.010625,0.004375
3.901,-0.010625,0.0040625
3.902,-0.0103125,0.0040625
3.903,-0.01,0.00375
3.904,-0.01,0.003125
3.905,-0.0096875,0.003125
3.906,-0.009375,0.0028125
3.907,-0.009375,0.0025
3.908,-0.0090625,0.0025
3.909,-0.0090625,0.001875
3.91,-0.00875,0.001875
3.911,-0.00875,0.0015625
3.912,-0.0084375,0.00125
3.913,-0.0084375,0.00125
3.914,-0.0084375,0.00125
3.915,-0.008125,0.0009375
3.916,-0.008125,0.000625
3.917,-0.008125,0.000625
3.918,-0.0078125,0.000625
3.919,-0.0078125,0.0003125
3.92,-0.0075,0.0003125
3.921,-0.0075,0.0003125
3.922,-0.0075,0
3.923,-0.0075,0
3.924,-0.0075,0
3.925,-0.0075,0
3.926,-0.0075,0.0003125
3.927,-0.0075,0.0003125
3.928,-0.0075,0.0003125
3.929,-0.0075,0.0003125
3.93,-0.0075,0.0003125
3.931,-0.0075,0.000625
3.932,-0.0075,0.000625
3.933,-0.0075,0.0009375
3.934,-0.0075,0.0009375
3.935,-0.0075,0.0009375
3.936,-0.0078125,0.00125
3.937,-0.0078125,0.00125
3.938,-0.0078125,0.0015625
3.939,-0.008125,0.0015625
3.94,-0.008125,0.0015625
3.941,-0.0084375,0.001875
3.942,-0.0084375,0.001875
3.943,-0.0084375,0.0021875
3.944,-0.00875,0.0021875
3.945,-0.00875,0.0021875
3.946,-0.0090625,0.0025
3.947,-0.009375,0.0025
3.948,-0.009375,0.0025
3.949,-0.0096875,0.0025
3.95,-0.01,0.0025
3.951,-0.01,0.0028125
3.952,-0.010625,0.0025
3.953,-0.010625,0.0025
3.954,-0.0109375,0.0025
3.955,-0.01125,0.0025
3.956,-0.01125,0.0025
3.957,-0.011875,0.0021875
3.958,-0.011875,0.001875
3.959,-0.0121875,0.0015625
3.96,-0.0125,0.0015625
3.961,-0.0125,0.00125
3.962,-0.013125,0.0009375
3.963,-0.013125,0.000625
3.964,-0.0134375,0.0003125
3.965,-0.01375,0
3.966,-0.01375,-0.0003125
3.967,-0.0140625,-0.0009375
3.968,-0.0140625,-0.0009375
3.969,-0.014375,-0.00125
3.97,-0.0146875,-0.0015625
3.971,-0.0146875,-0.001875
3.972,-0.015,-0.0021875
3.973,-0.015,-0.0025
3.974,-0.0153125,-0.0028125
3.975,-0.0153125,-0.0028125
3.976,-0.0153125,-0.0034375
3.977,-0.015625,-0.0034375
3.978,-0.015625,-0.00375
3.979,-0.015625,-0.0040625
3.98,-0.015625,-0.0040625
3.981,-0.015625,-0.004375
3.982,-0.015625,-0.0046875
3.983,-0.015625,-0.0046875
3.984,-0.015625,-0.005
3.985,-0.015625,-0.005
3.986,-0.015625,-0.005
3.987,-0.015625,-0.0053125
3.988,-0.015625,-0.0053125
3.989,-0.015625,-0.005
3.99,-0.0153125,-0.005
3.991,-0.0153125,-0.005
3.992,-0.0153125,-0.005
3.993,-0.015,-0.005
3.994,-0.015,-0.005
3.995,-0.0146875,-0.0046875
3.996,-0.0146875,-0.0046875
3.997,-0.014375,-0.0046875
3.998,-0.0140625,-0.004375
3.999,-0.0140625,-0.004375
4,-0.01375,-0.004375
4.001,-0.01375,-0.0040625
4.002,-0.0134375,-0.0040625
4.003,-0.013125,-0.0040625
4.004,-0.013125,-0.00375
4.005,-0.0128125,-0.00375
4.006,-0.0128125,-0.00375
4.007,-0.0125,-0.0034375
4.008,-0.0121875,-0.0034375
4.009,-0.011875,-0.003125
4.01,-0.011875,-0.003125
4.011,-0.011875,-0.0028125
4.012,-0.0115625,-0.0025
4.013,-0.01125,-0.0025
4.014,-0.01125,-0.0021875
4.015,-0.0109375,-0.0021875
4.016,-0.010625,-0.0021875
4.017,-0.010625,-0.001875
4.018,-0.0103125,-0.001875
4.019,-0.0103125,-0.001875
4.02,-0.01,-0.001875
4.021,-0.01,-0.001875
4.022,-0.0096875,-0.0015625
4.023,-0.0096875,-0.0015625
4.024,-0.009375,-0.0015625
4.025,-0.009375,-0.0015625
4.026,-0.0090625,-0.0015625
4.027,-0.0090625,-0.0015625
4.028,-0.00875,-0.0015625
4.029,-0.00875,-0.00125
4.03,-0.00875,-0.00125
4.031,-0.0084375,-0.00125
4.032,-0.0084375,-0.00125
4.033,-0.008125,-0.00125
4.034,-0.008125,-0.00125
4.035,-0.0078125,-0.00125
4.036,-0.0078125,-0.00125
4.037,-0.0075,-0.00125
4.038,-0.0071875,-0.00125
4.039,-0.0071875,-0.00125
4.04,-0.0071875,-0.00125
4.041,-0.006875,-0.00125
4.042,-0.0065625,-0.00125
4.043,-0.0065625,-0.00125
4.044,-0.0059375,-0.00125
4.045,-0.0059375,-0.00125
4.046,-0.005625,-0.00125
4.047,-0.0053125,-0.0009375
4.048,-0.0053125,-0.0009375
4.049,-0.0046875,-0.0009375
4.05,-0.004375,-0.000625
4.051,-0.004375,-0.0003125
4.052,-0.0040625,0
4.053,-0.00375,0
4.054,-0.0034375,0.0003125
4.055,-0.003125,0.000625
4.056,-0.0028125,0.000625
4.057,-0.0025,0.0009375
4.058,-0.0025,0.00125
4.059,-0.0021875,0.00125
4.06,-0.0015625,0.0015625
4.061,-0.0015625,0.001875
4.062,-0.00125,0.0021875
4.063,-0.000625,0.0021875
4.064,-0.000625,0.0021875
4.065,-0.0003125,0.0025
4.066,0,0.0028125
4.067,0,0.0028125
4.068,0.000625,0.003125
4.069,0.000625,0.003125
4.07,0.0009375,0.003125
4.071,0.00125,0.0034375
4.072,0.00125,0.0034375
4.073,0.0015625,0.00375
4.074,0.0015625,0.00375
4.075,0.0015625,0.00375
4.076,0.001875,0.00375
4.077,0.001875,0.00375
4.078,0.001875,0.00375
4.079,0.0021875,0.00375
4.08,0.0021875,0.0034375
4.081,0.0021875,0.0034375
4.082,0.0021875,0.003125
4.083,0.0021875,0.003125
4.084,0.0021875,0.003125
4.085,0.001875,0.0028125
4.086,0.001875,0.0028125
4.087,0.001875,0.0025
4.088,0.001875,0.0021875
4.089,0.001875,0.001875
4.09,0.001875,0.001875
4.091,0.0015625,0.0015625
4.092,0.0015625,0.00125
4.093,0.0015625,0.00125
4.094,0.00125,0.000625
4.095,0.00125,0.000625
4.096,0.00125,0.0003125
4.097,0.00125,0
4.098,0.0009375,0
4.099,0.0009375,-0.000625
4.1,0.0009375,-0.000625
4.101,0.000625,-0.0009375
4.102,0.000625,-0.00125
4.103,0.000625,-0.0015625
4.104,0.000625,-0.0015625
4.105,0.0003125,-0.001875
4.106,0.0003125,-0.001875
4.107,0.0003125,-0.001875
4.108,0.0003125,-0.0021875
4.109,0.0003125,-0.0021875
4.11,0.0003125,-0.0021875
4.111,0.0003125,-0.0025
4.112,0.000625,-0.0025
4.113,0.000625,-0.0025
4.114,0.000625,-0.0025
4.115,0.000625,-0.0025
4.116,0.0009375,-0.0025
4.117,0.0009375,-0.0025
4.118,0.0009375,-0.0025
4.119,0.00125,-0.0025
4.12,0.00125,-0.0025
4.121,0.0015625,-0.0025
4.122,0.001875,-0.0025
4.123,0.001875,-0.0025
4.124,0.0021875,-0.0025
4.125,0.0025,-0.0025
4.126,0.0025,-0.0025
4.127,0.0028125,-0.0021875
4.128,0.003125,-0.0021875
4.129,0.003125,-0.0021875
4.13,0.0034375,-0.001875
4.131,0.00375,-0.001875
4.132,0.0040625,-0.001875
4.133,0.0040625,-0.0015625
4.134,0.004375,-0.0015625
4.135,0.004375,-0.0015625
4.136,0.0046875,-0.00125
4.137,0.005,-0.00125
4.138,0.005,-0.0015625
4.139,0.0053125,-0.0015625
4.14,0.0053125,-0.0015625
4.141,0.005625,-0.001875
4.142,0.005625,-0.0021875
4.143,0.005625,-0.0025
4.144,0.0059375,-0.0028125
4.145,0.0059375,-0.00375
4.146,0.0059375,-0.004375
4.147,0.0059375,-0.005625
4.148,0.0059375,-0.006875
4.149,0.0059375,-0.008125
4.15,0.0059375,-0.01
4.151,0.005625,-0.0121875
4.152,0.005625,-0.014375
4.153,0.005625,-0.0171875
4.154,0.005625,-0.02
4.155,0.005625,-0.02375
4.156,0.005625,-0.0275
4.157,0.0053125,-0.0315625
4.158,0.0053125,-0.03625
4.159,0.0053125,-0.04125
4.16,0.005,-0.0465625
4.161,0.005,-0.0521875
4.162,0.005,-0.0584375
4.163,0.005,-0.065625
4.164,0.0046875,-0.0721875
4.165,0.0046875,-0.0796875
4.166,0.0046875,-0.0878125
4.167,0.004375,-0.0959375
4.168,0.004375,-0.1046875
4.169,0.004375,-0.1140625
4.17,0.0040625,-0.123125
4.171,0.0040625,-0.133125
4.172,0.0040625,-0.143125
4.173,0.0040625,-0.15375
4.174,0.00375,-0.164375
4.175,0.00375,-0.1753125
4.176,0.00375,-0.1865625
4.177,0.0034375,-0.198125
4.178,0.0034375,-0.209375
4.179,0.0034375,-0.2209375
4.18,0.003125,-0.2328125
4.181,0.003125,-0.244375
4.182,0.0028125,-0.2559375
4.183,0.0028125,-0.2678125
4.184,0.0025,-0.279375
4.185,0.0021875,-0.290625
4.186,0.0021875,-0.301875
4.187,0.001875,-0.313125
4.188,0.0015625,-0.3240625
4.189,0.0015625,-0.3346875
4.19,0.0009375,-0.3453125
4.191,0.0009375,-0.3553125
4.192,0.000625,-0.3653125
4.193,0.0003125,-0.375
4.194,0.0003125,-0.384375
4.195,-0.0003125,-0.3934375
4.196,-0.000625,-0.4025
4.197,-0.000625,-0.4109375
4.198,-0.00125,-0.4190625
4.199,-0.00125,-0.426875
4.2,-0.001875,-0.434375
4.201,-0.001875,-0.441875
4.202,-0.0025,-0.4484375
4.203,-0.0028125,-0.455
4.204,-0.0028125,-0.46125
4.205,-0.0034375,-0.466875
4.206,-0.0034375,-0.4725
4.207,-0.0040625,-0.4775
4.208,-0.0040625,-0.4821875
4.209,-0.004375,-0.4865625
4.21,-0.005,-0.490625
4.211,-0.005,-0.494375
4.212,-0.0053125,-0.4978125
4.213,-0.005625,-0.5009375
4.214,-0.0059375,-0.50375
4.215,-0.00625,-0.50625
4.216,-0.00625,-0.5084375
4.217,-0.006875,-0.510625
4.218,-0.006875,-0.5121875
4.219,-0.0071875,-0.5134375
4.22,-0.0075,-0.5146875
4.221,-0.0075,-0.515625
4.222,-0.0078125,-0.51625
4.223,-0.008125,-0.516875
4.224,-0.0084375,-0.516875
4.225,-0.0084375,-0.516875
4.226,-0.00875,-0.5165625
4.227,-0.0090625,-0.51625
4.228,-0.0090625,-0.5153125
4.229,-0.009375,-0.514375
4.23,-0.0096875,-0.5134375
4.231,-0.01,-0.5121875
4.232,-0.01,-0.5103125
4.233,-0.01,-0.50875
4.234,-0.0103125,-0.5071875
4.235,-0.010625,-0.505
4.236,-0.0109375,-0.503125
4.237,-0.0109375,-0.500625
4.238,-0.01125,-0.49875
4.239,-0.01125,-0.49625
4.24,-0.0115625,-0.49375
4.241,-0.0115625,-0.49125
4.242,-0.0115625,-0.48875
4.243,-0.011875,-0.4859375
4.244,-0.011875,-0.4834375
4.245,-0.0121875,-0.4803125
4.246,-0.0121875,-0.4778125
4.247,-0.0121875,-0.4746875
4.248,-0.0125,-0.471875
4.249,-0.0125,-0.4690625
4.25,-0.0125,-0.4659375
4.251,-0.0125,-0.4628125
4.252,-0.0128125,-0.46
4.253,-0.0128125,-0.456875
4.254,-0.0128125,-0.45375
4.255,-0.0128125,-0.4509375
4.256,-0.0128125,-0.4478125
4.257,-0.0128125,-0.445
4.258,-0.0128125,-0.4421875
4.259,-0.0128125,-0.439375
4.26,-0.0128125,-0.43625
4.261,-0.0128125,-0.43375
4.262,-0.0128125,-0.430625
4.263,-0.0128125,-0.428125
4.264,-0.0128125,-0.4253125
4.265,-0.0128125,-0.4225
4.266,-0.0128125,-0.42
4.267,-0.0125,-0.4171875
4.268,-0.0125,-0.414375
4.269,-0.0125,-0.411875
4.27,-0.0121875,-0.4090625
4.271,-0.0121875,-0.4065625
4.272,-0.0121875,-0.4040625
4.273,-0.011875,-0.40125
4.274,-0.011875,-0.39875
4.275,-0.011875,-0.39625
4.276,-0.0115625,-0.39375
4.277,-0.0115625,-0.3909375
4.278,-0.0115625,-0.3884375
4.279,-0.01125,-0.38625
4.28,-0.01125,-0.38375
4.281,-0.01125,-0.38125
4.282,-0.0109375,-0.37875
4.283,-0.0109375,-0.37625
4.284,-0.0109375,-0.37375
4.285,-0.010625,-0.37125
4.286,-0.010625,-0.36875
4.287,-0.0103125,-0.36625
4.288,-0.0103125,-0.3634375
4.289,-0.0103125,-0.3609375
4.29,-0.0103125,-0.3584375
4.291,-0.01,-0.355625
4.292,-0.01,-0.3528125
4.293,-0.01,-0.3503125
4.294,-0.0096875,-0.3478125
4.295,-0.0096875,-0.345
4.296,-0.0096875,-0.3421875
4.297,-0.0096875,-0.3396875
4.298,-0.009375,-0.336875
4.299,-0.009375,-0.334375
4.3,-0.009375,-0.331875
4.301,-0.009375,-0.3290625
4.302,-0.009375,-0.32625
4.303,-0.0090625,-0.32375
4.304,-0.0090625,-0.320625
4.305,-0.0090625,-0.318125
4.306,-0.0090625,-0.315
4.307,-0.0090625,-0.3121875
4.308,-0.0090625,-0.309375
4.309,-0.0090625,-0.30625
4.31,-0.00875,-0.303125
4.311,-0.00875,-0.3003125
4.312,-0.00875,-0.296875
4.313,-0.00875,-0.2940625
4.314,-0.00875,-0.2909375
4.315,-0.00875,-0.2878125
4.316,-0.00875,-0.2846875
4.317,-0.00875,-0.2815625
4.318,-0.00875,-0.2784375
4.319,-0.00875,-0.275
4.32,-0.0084375,-0.271875
4.321,-0.0084375,-0.26875
4.322,-0.0084375,-0.265625
4.323,-0.0084375,-0.2621875
4.324,-0.0084375,-0.25875
4.325,-0.0084375,-0.2553125
4.326,-0.0084375,-0.2515625
4.327,-0.0084375,-0.248125
4.328,-0.0084375,-0.244375
4.329,-0.0084375,-0.2403125
4.33,-0.0084375,-0.2365625
4.331,-0.0084375,-0.2321875
4.332,-0.0084375,-0.228125
4.333,-0.0084375,-0.2240625
4.334,-0.0084375,-0.2196875
4.335,-0.0084375,-0.215
4.336,-0.0084375,-0.2103125
4.337,-0.0084375,-0.2059375
4.338,-0.0084375,-0.2009375
4.339,-0.0084375,-0.19625
4.34,-0.0084375,-0.19125
4.341,-0.0084375,-0.1859375
4.342,-0.0084375,-0.180625
4.343,-0.0084375,-0.1753125
4.344,-0.0084375,-0.17
4.345,-0.0084375,-0.1640625
4.346,-0.0084375,-0.1584375
4.347,-0.0084375,-0.1525
4.348,-0.0084375,-0.14625
4.349,-0.0084375,-0.14
4.35,-0.0084375,-0.1340625
4.351,-0.0084375,-0.1275
4.352,-0.00875,-0.1215625
4.353,-0.00875,-0.115
4.354,-0.00875,-0.1084375
4.355,-0.00875,-0.1021875
4.356,-0.00875,-0.095625
4.357,-0.00875,-0.0890625
4.358,-0.0090625,-0.0821875
4.359,-0.0090625,-0.075
4.36,-0.009375,-0.0678125
4.361,-0.009375,-0.0603125
4.362,-0.009375,-0.0528125
4.363,-0.009375,-0.0446875
4.364,-0.0096875,-0.0365625
4.365,-0.0096875,-0.028125
4.366,-0.0096875,-0.019375
4.367,-0.01,-0.010625
4.368,-0.01,-0.0015625
4.369,-0.0096875,0.0071875
4.37,-0.0096875,0.01625
4.371,-0.0096875,0.025
4.372,-0.0096875,0.0334375
4.373,-0.009375,0.041875
4.374,-0.009375,0.05
4.375,-0.009375,0.0578125
4.376,-0.0090625,0.0653125
4.377,-0.00875,0.0728125
4.378,-0.00875,0.08
4.379,-0.0084375,0.0871875
4.38,-0.0084375,0.09375
4.381,-0.008125,0.1009375
4.382,-0.008125,0.1075
4.383,-0.008125,0.1146875
4.384,-0.0078125,0.12125
4.385,-0.0078125,0.128125
4.386,-0.0075,0.1353125
4.387,-0.0071875,0.1415625
4.388,-0.0071875,0.148125
4.389,-0.006875,0.154375
4.39,-0.006875,0.1596875
4.391,-0.00625,0.165
4.392,-0.00625,0.1696875
4.393,-0.0059375,0.17375
4.394,-0.005625,0.176875
4.395,-0.0053125,0.1796875
4.396,-0.005,0.181875
4.397,-0.005,0.1834375
4.398,-0.0046875,0.1846875
4.399,-0.0046875,0.185625
4.4,-0.0046875,0.1859375
4.401,-0.0046875,0.18625
4.402,-0.0046875,0.186875
4.403,-0.0046875,0.1871875
4.404,-0.0046875,0.1875
4.405,-0.0046875,0.1884375
4.406,-0.005,0.18875
4.407,-0.005,0.1896875
4.408,-0.0053125,0.190625
4.409,-0.0053125,0.1909375
4.41,-0.005625,0.191875
4.411,-0.005625,0.1921875
4.412,-0.005625,0.1921875
4.413,-0.0059375,0.191875
4.414,-0.0059375,0.1915625
4.415,-0.00625,0.190625
4.416,-0.00625,0.189375
4.417,-0.00625,0.1878125
4.418,-0.0065625,0.1859375
4.419,-0.0065625,0.184375
4.42,-0.006875,0.1828125
4.421,-0.0071875,0.1809375
4.422,-0.0071875,0.179375
4.423,-0.0075,0.178125
4.424,-0.0078125,0.1771875
4.425,-0.0078125,0.17625
4.426,-0.0084375,0.17625
4.427,-0.0084375,0.1759375
4.428,-0.00875,0.1759375
4.429,-0.0090625,0.1759375
4.43,-0.0090625,0.1759375
4.431,-0.0090625,0.1759375
4.432,-0.009375,0.175625
4.433,-0.009375,0.175
4.434,-0.009375,0.174375
4.435,-0.0096875,0.1734375
4.436,-0.0096875,0.1721875
4.437,-0.0096875,0.1709375
4.438,-0.0096875,0.169375
4.439,-0.0096875,0.1678125
4.44,-0.01,0.16625
4.441,-0.01,0.1646875
4.442,-0.0103125,0.1634375
4.443,-0.0103125,0.1625
4.444,-0.0103125,0.1615625
4.445,-0.010625,0.16125
4.446,-0.010625,0.1609375
4.447,-0.0109375,0.1609375
4.448,-0.0109375,0.16125
4.449,-0.0109375,0.1615625
4.45,-0.0109375,0.161875
4.451,-0.0109375,0.161875
4.452,-0.0109375,0.161875
4.453,-0.0109375,0.161875
4.454,-0.0109375,0.1609375
4.455,-0.010625,0.160625
4.456,-0.010625,0.159375
4.457,-0.010625,0.158125
4.458,-0.010625,0.156875
4.459,-0.0103125,0.1553125
4.46,-0.0103125,0.15375
4.461,-0.0103125,0.1525
4.462,-0.0103125,0.15125
4.463,-0.010625,0.150625
4.464,-0.010625,0.15
4.465,-0.010625,0.1496875
4.466,-0.010625,0.1496875
4.467,-0.010625,0.1496875
4.468,-0.0103125,0.15
4.469,-0.0103125,0.1503125
4.47,-0.0103125,0.1509375
4.471,-0.0103125,0.15125
4.472,-0.0103125,0.15125
4.473,-0.01,0.15125
4.474,-0.01,0.1509375
4.475,-0.0096875,0.150625
4.476,-0.0096875,0.1496875
4.477,-0.0096875,0.1484375
4.478,-0.009375,0.1475
4.479,-0.009375,0.14625
4.48,-0.009375,0.145
4.481,-0.009375,0.1440625
4.482,-0.009375,0.143125
4.483,-0.009375,0.1425
4.484,-0.009375,0.141875
4.485,-0.009375,0.141875
4.486,-0.009375,0.141875
4.487,-0.0096875,0.1425
4.488,-0.0096875,0.1428125
4.489,-0.0096875,0.1434375
4.49,-0.0096875,0.14375
4.491,-0.0096875,0.144375
4.492,-0.0096875,0.1446875
4.493,-0.0096875,0.1446875
4.494,-0.0096875,0.144375
4.495,-0.0096875,0.1440625
4.496,-0.009375,0.143125
4.497,-0.009375,0.1421875
4.498,-0.009375,0.1409375
4.499,-0.009375,0.1396875
4.5,-0.009375,0.1384375
4.501,-0.009375,0.1371875
4.502,-0.009375,0.13625
4.503,-0.0096875,0.1353125
4.504,-0.0096875,0.1346875
4.505,-0.0096875,0.134375
4.506,-0.0096875,0.134375
4.507,-0.0096875,0.1346875
4.508,-0.0096875,0.135
4.509,-0.0096875,0.1353125
4.51,-0.0096875,0.1359375
4.511,-0.0096875,0.1359375
4.512,-0.009375,0.13625
4.513,-0.009375,0.13625
4.514,-0.009375,0.1359375
4.515,-0.0090625,0.1353125
4.516,-0.0090625,0.1346875
4.517,-0.00875,0.13375
4.518,-0.0084375,0.1325
4.519,-0.008125,0.13125
4.52,-0.008125,0.1303125
4.521,-0.008125,0.1290625
4.522,-0.0078125,0.1284375
4.523,-0.0078125,0.1278125
4.524,-0.0078125,0.1271875
4.525,-0.0075,0.1271875
4.526,-0.0075,0.1271875
4.527,-0.0075,0.1278125
4.528,-0.0075,0.128125
4.529,-0.0075,0.12875
4.53,-0.0071875,0.1296875
4.531,-0.0071875,0.13
4.532,-0.0071875,0.1303125
4.533,-0.006875,0.130625
4.534,-0.006875,0.1303125
4.535,-0.006875,0.13
4.536,-0.0065625,0.1296875
4.537,-0.0065625,0.12875
