Interval=,0.001 s,
ExcelDateTime=,4.54E+04,54:04.2
TimeFormat=,StartOfBlock,
DateFormat=,,
ChannelTitle=,Channel 3,Channel 4
Range=,10.000 mV,10.000 mV
0,0,0
0.001,0,0
0.002,0,0
0.003,0,0
0.004,0,0
0.005,0,0
0.006,0,0
0.007,0,0.0003125
0.008,0,0.000625
0.009,0,0.00125
0.01,0,0.0015625
0.011,0,0.0025
0.012,0,0.003125
0.013,0,0.004375
0.014,0,0.005625
0.015,0,0.006875
0.016,0,0.0084375
0.017,0,0.0103125
0.018,0,0.0125
0.019,0.0003125,0.0146875
0.02,0.0003125,0.016875
0.021,0.0003125,0.0196875
0.022,0.000625,0.0225
0.023,0.000625,0.0253125
0.024,0.0009375,0.0284375
0.025,0.00125,0.031875
0.026,0.00125,0.0353125
0.027,0.0015625,0.03875
0.028,0.0015625,0.0428125
0.029,0.0021875,0.0465625
0.03,0.0021875,0.0509375
0.031,0.0028125,0.0553125
0.032,0.003125,0.059375
0.033,0.0034375,0.0640625
0.034,0.00375,0.06875
0.035,0.004375,0.0734375
0.036,0.0046875,0.0784375
0.037,0.0053125,0.083125
0.038,0.005625,0.0878125
0.039,0.00625,0.0928125
0.04,0.0065625,0.0971875
0.041,0.0075,0.101875
0.042,0.0078125,0.10625
0.043,0.0084375,0.1103125
0.044,0.0090625,0.114375
0.045,0.0096875,0.118125
0.046,0.0103125,0.1215625
0.047,0.0109375,0.125
0.048,0.0115625,0.1278125
0.049,0.0125,0.130625
0.05,0.0128125,0.133125
0.051,0.01375,0.135
0.052,0.0140625,0.1371875
0.053,0.015,0.13875
0.054,0.0153125,0.1403125
0.055,0.01625,0.1415625
0.056,0.0165625,0.1421875
0.057,0.0175,0.1428125
0.058,0.0178125,0.1434375
0.059,0.0184375,0.1434375
0.06,0.019375,0.143125
0.061,0.0196875,0.1425
0.062,0.020625,0.141875
0.063,0.0209375,0.140625
0.064,0.02125,0.1390625
0.065,0.0221875,0.1375
0.066,0.0225,0.1353125
0.067,0.0228125,0.1334375
0.068,0.0234375,0.1309375
0.069,0.0240625,0.128125
0.07,0.024375,0.125625
0.071,0.025,0.1225
0.072,0.0253125,0.1196875
0.073,0.025625,0.11625
0.074,0.0259375,0.1134375
0.075,0.0265625,0.11
0.076,0.026875,0.106875
0.077,0.0271875,0.103125
0.078,0.0275,0.1
0.079,0.0278125,0.09625
0.08,0.028125,0.0928125
0.081,0.0284375,0.0890625
0.082,0.02875,0.0853125
0.083,0.0290625,0.0815625
0.084,0.029375,0.0778125
0.085,0.029375,0.0740625
0.086,0.0296875,0.07
0.087,0.0303125,0.06625
0.088,0.0303125,0.0625
0.089,0.030625,0.0584375
0.09,0.0309375,0.0546875
0.091,0.0309375,0.0509375
0.092,0.03125,0.0471875
0.093,0.0315625,0.0434375
0.094,0.031875,0.0396875
0.095,0.031875,0.03625
0.096,0.0321875,0.0325
0.097,0.0325,0.029375
0.098,0.0325,0.0259375
0.099,0.033125,0.0225
0.1,0.033125,0.019375
0.101,0.033125,0.0159375
0.102,0.0334375,0.0125
0.103,0.03375,0.009375
0.104,0.03375,0.0059375
0.105,0.0340625,0.0025
0.106,0.0340625,-0.0003125
0.107,0.034375,-0.00375
0.108,0.034375,-0.006875
0.109,0.0346875,-0.01
0.11,0.0346875,-0.013125
0.111,0.035,-0.01625
0.112,0.035,-0.01875
0.113,0.0353125,-0.021875
0.114,0.035625,-0.024375
0.115,0.035625,-0.0271875
0.116,0.0359375,-0.0296875
0.117,0.0359375,-0.0321875
0.118,0.03625,-0.034375
0.119,0.03625,-0.036875
0.12,0.0365625,-0.0390625
0.121,0.0365625,-0.04125
0.122,0.036875,-0.04375
0.123,0.036875,-0.0459375
0.124,0.0371875,-0.048125
0.125,0.0371875,-0.0503125
0.126,0.0371875,-0.0525
0.127,0.0375,-0.054375
0.128,0.0375,-0.0565625
0.129,0.0378125,-0.0584375
0.13,0.0378125,-0.060625
0.131,0.038125,-0.0621875
0.132,0.038125,-0.06375
0.133,0.038125,-0.065625
0.134,0.0384375,-0.066875
0.135,0.0384375,-0.06875
0.136,0.03875,-0.07
0.137,0.03875,-0.07125
0.138,0.0390625,-0.0725
0.139,0.0390625,-0.07375
0.14,0.039375,-0.075
0.141,0.039375,-0.07625
0.142,0.0396875,-0.0775
0.143,0.0396875,-0.07875
0.144,0.0396875,-0.08
0.145,0.04,-0.08125
0.146,0.04,-0.0825
0.147,0.04,-0.08375
0.148,0.0403125,-0.085
0.149,0.0403125,-0.08625
0.15,0.0403125,-0.0871875
0.151,0.040625,-0.088125
0.152,0.040625,-0.0890625
0.153,0.040625,-0.09
0.154,0.040625,-0.090625
0.155,0.0409375,-0.0915625
0.156,0.0409375,-0.091875
0.157,0.0409375,-0.0928125
0.158,0.0409375,-0.093125
0.159,0.0409375,-0.09375
0.16,0.04125,-0.094375
0.161,0.04125,-0.0946875
0.162,0.04125,-0.095
0.163,0.04125,-0.0959375
0.164,0.04125,-0.09625
0.165,0.04125,-0.096875
0.166,0.0415625,-0.0975
0.167,0.0415625,-0.0978125
0.168,0.0415625,-0.0984375
0.169,0.0415625,-0.099375
0.17,0.0415625,-0.0996875
0.171,0.0415625,-0.1003125
0.172,0.0415625,-0.100625
0.173,0.0415625,-0.10125
0.174,0.041875,-0.10125
0.175,0.041875,-0.101875
0.176,0.041875,-0.101875
0.177,0.041875,-0.1021875
0.178,0.041875,-0.1025
0.179,0.0421875,-0.1028125
0.18,0.0421875,-0.1028125
0.181,0.0421875,-0.103125
0.182,0.0421875,-0.1034375
0.183,0.0421875,-0.1034375
0.184,0.0421875,-0.1040625
0.185,0.0421875,-0.104375
0.186,0.0421875,-0.104375
0.187,0.0421875,-0.1046875
0.188,0.0425,-0.1053125
0.189,0.0425,-0.105625
0.19,0.0425,-0.105625
0.191,0.0425,-0.1059375
0.192,0.0425,-0.10625
0.193,0.0428125,-0.10625
0.194,0.0428125,-0.10625
0.195,0.043125,-0.10625
0.196,0.043125,-0.1059375
0.197,0.043125,-0.1059375
0.198,0.0434375,-0.1059375
0.199,0.0434375,-0.105625
0.2,0.0434375,-0.1053125
0.201,0.04375,-0.1053125
0.202,0.04375,-0.105
0.203,0.04375,-0.104375
0.204,0.04375,-0.104375
0.205,0.04375,-0.1040625
0.206,0.04375,-0.10375
0.207,0.04375,-0.1034375
0.208,0.04375,-0.103125
0.209,0.04375,-0.1028125
0.21,0.04375,-0.1025
0.211,0.04375,-0.101875
0.212,0.04375,-0.1015625
0.213,0.04375,-0.10125
0.214,0.04375,-0.100625
0.215,0.04375,-0.0996875
0.216,0.0434375,-0.099375
0.217,0.0434375,-0.0984375
0.218,0.0434375,-0.0978125
0.219,0.0434375,-0.096875
0.22,0.0434375,-0.09625
0.221,0.043125,-0.0953125
0.222,0.043125,-0.0946875
0.223,0.043125,-0.09375
0.224,0.0428125,-0.093125
0.225,0.0428125,-0.0921875
0.226,0.0425,-0.0915625
0.227,0.0425,-0.090625
0.228,0.0421875,-0.09
0.229,0.0421875,-0.0890625
0.23,0.041875,-0.0884375
0.231,0.041875,-0.0875
0.232,0.041875,-0.0865625
0.233,0.0415625,-0.0853125
0.234,0.0415625,-0.084375
0.235,0.0415625,-0.0834375
0.236,0.04125,-0.0825
0.237,0.04125,-0.08125
0.238,0.0409375,-0.08
0.239,0.0409375,-0.0790625
0.24,0.0409375,-0.0778125
0.241,0.0409375,-0.0765625
0.242,0.040625,-0.0753125
0.243,0.040625,-0.074375
0.244,0.040625,-0.0734375
0.245,0.0403125,-0.0721875
0.246,0.0403125,-0.07125
0.247,0.0403125,-0.0703125
0.248,0.04,-0.069375
0.249,0.04,-0.068125
0.25,0.04,-0.0671875
0.251,0.0396875,-0.06625
0.252,0.0396875,-0.065
0.253,0.039375,-0.0640625
0.254,0.0390625,-0.0628125
0.255,0.0390625,-0.0615625
0.256,0.03875,-0.060625
0.257,0.03875,-0.059375
0.258,0.0384375,-0.058125
0.259,0.0378125,-0.0571875
0.26,0.0378125,-0.0559375
0.261,0.0371875,-0.055
0.262,0.036875,-0.05375
0.263,0.036875,-0.0525
0.264,0.0365625,-0.0515625
0.265,0.03625,-0.0503125
0.266,0.0359375,-0.049375
0.267,0.035625,-0.048125
0.268,0.035625,-0.046875
0.269,0.035625,-0.045625
0.27,0.0353125,-0.044375
0.271,0.0353125,-0.043125
0.272,0.035625,-0.0415625
0.273,0.035625,-0.04
0.274,0.035625,-0.038125
0.275,0.0359375,-0.0365625
0.276,0.0365625,-0.0346875
0.277,0.036875,-0.0325
0.278,0.0371875,-0.0303125
0.279,0.038125,-0.028125
0.28,0.0390625,-0.0259375
0.281,0.0396875,-0.0234375
0.282,0.0409375,-0.0209375
0.283,0.0421875,-0.018125
0.284,0.0434375,-0.0153125
0.285,0.0446875,-0.0125
0.286,0.04625,-0.009375
0.287,0.048125,-0.00625
0.288,0.05,-0.0028125
0.289,5.19E-02,01:21.0
0.29,0.0540625,0.005
0.291,0.0565625,0.0090625
0.292,0.0590625,0.0134375
0.293,0.0615625,0.018125
0.294,0.0646875,0.0228125
0.295,0.0675,0.0278125
0.296,0.070625,0.0334375
0.297,0.0740625,0.03875
0.298,0.0775,0.0446875
0.299,0.0809375,0.050625
0.3,0.0846875,0.0565625
0.301,0.0884375,0.0628125
0.302,0.0925,0.069375
0.303,0.0965625,0.0759375
0.304,0.100625,0.0828125
0.305,0.1046875,0.089375
0.306,0.1090625,0.0965625
0.307,0.11375,0.10375
0.308,0.118125,0.1109375
0.309,0.1228125,0.1184375
0.31,0.1275,0.1259375
0.311,0.1321875,0.13375
0.312,0.1371875,0.1415625
0.313,0.1421875,0.1496875
0.314,0.146875,0.1575
0.315,0.151875,0.165625
0.316,0.1571875,0.1740625
0.317,0.1621875,0.1821875
0.318,0.1671875,0.190625
0.319,0.1725,0.1984375
0.32,0.1775,0.206875
0.321,0.1828125,0.215
0.322,0.1878125,0.2228125
0.323,0.193125,0.230625
0.324,0.1984375,0.23875
0.325,0.2034375,0.24625
0.326,0.20875,0.25375
0.327,0.2140625,0.26125
0.328,0.2190625,0.268125
0.329,0.2240625,0.275625
0.33,0.229375,0.2821875
0.331,0.234375,0.2890625
0.332,0.239375,0.295625
0.333,0.244375,0.301875
0.334,0.249375,0.308125
0.335,0.254375,0.314375
0.336,0.2590625,0.3196875
0.337,0.26375,0.325625
0.338,0.2684375,0.3309375
0.339,0.273125,0.3359375
0.34,0.2775,0.340625
0.341,0.2821875,0.3453125
0.342,0.2865625,0.3496875
0.343,0.290625,0.3534375
0.344,0.2946875,0.3571875
0.345,0.29875,0.360625
0.346,0.3028125,0.36375
0.347,0.3065625,0.3665625
0.348,0.3103125,0.3690625
0.349,0.3140625,0.3715625
0.35,0.3171875,0.3734375
0.351,0.3209375,0.3753125
0.352,0.3240625,0.3771875
0.353,0.326875,0.3784375
0.354,0.3303125,0.3796875
0.355,0.333125,0.3803125
0.356,0.3359375,0.3809375
0.357,0.3384375,0.3815625
0.358,0.3409375,0.3815625
0.359,0.3434375,0.38125
0.36,0.3453125,0.3809375
0.361,0.3475,0.3803125
0.362,0.3496875,0.379375
0.363,0.3509375,0.378125
0.364,0.3528125,0.37625
0.365,0.3540625,0.3746875
0.366,0.3553125,0.3725
0.367,0.3565625,0.3703125
0.368,0.3575,0.3678125
0.369,0.3584375,0.365
0.37,0.35875,0.3621875
0.371,0.3596875,0.3590625
0.372,0.36,0.355625
0.373,0.3603125,0.3521875
0.374,0.360625,0.3484375
0.375,0.360625,0.3446875
0.376,0.360625,0.3403125
0.377,0.360625,0.33625
0.378,0.3603125,0.331875
0.379,0.3596875,0.3271875
0.38,0.359375,0.3225
0.381,0.35875,0.3175
0.382,0.358125,0.3125
0.383,0.3571875,0.306875
0.384,0.35625,0.3015625
0.385,0.355625,0.2959375
0.386,0.354375,0.29
0.387,0.353125,0.2840625
0.388,0.351875,0.2778125
0.389,0.350625,0.2715625
0.39,0.349375,0.265625
0.391,0.3478125,0.259375
0.392,0.34625,0.2528125
0.393,0.345,0.24625
0.394,0.343125,0.24
0.395,0.341875,0.2334375
0.396,0.34,0.226875
0.397,0.3384375,0.2203125
0.398,0.3365625,0.21375
0.399,0.3346875,0.2071875
0.4,0.333125,0.200625
0.401,0.3315625,0.1940625
0.402,0.329375,0.1875
0.403,0.3278125,0.180625
0.404,0.325625,0.1740625
0.405,0.3240625,0.1675
0.406,0.321875,0.160625
0.407,0.3196875,0.154375
0.408,0.318125,0.1478125
0.409,0.3159375,0.1415625
0.41,0.3140625,0.135
0.411,0.3121875,0.1284375
0.412,0.31,0.1225
0.413,0.308125,0.1165625
0.414,0.3059375,0.110625
0.415,0.304375,0.1046875
0.416,0.3021875,0.0990625
0.417,0.300625,0.0934375
0.418,0.2984375,0.088125
0.419,0.2965625,0.0825
0.42,0.295,0.0771875
0.421,0.2928125,0.0721875
0.422,0.29125,0.0671875
0.423,0.2896875,0.0621875
0.424,0.2878125,0.0571875
0.425,0.2859375,0.0525
0.426,0.284375,0.0475
0.427,0.2825,0.043125
0.428,0.28125,0.0384375
0.429,0.279375,0.0340625
0.43,0.278125,0.0296875
0.431,0.27625,0.025625
0.432,0.275,0.02125
0.433,0.27375,0.0175
0.434,0.2721875,0.01375
0.435,0.2709375,0.01
0.436,0.2696875,0.00625
0.437,0.2684375,0.0028125
0.438,0.2671875,-0.000625
0.439,0.2659375,-0.00375
0.44,0.2646875,-0.0071875
0.441,0.2634375,-0.010625
0.442,0.2621875,-0.0134375
0.443,0.2609375,-0.0165625
0.444,0.26,-0.019375
0.445,0.25875,-0.0225
0.446,0.2575,-0.0253125
0.447,0.2565625,-0.0284375
0.448,0.2553125,-0.0309375
0.449,0.254375,-0.0340625
0.45,0.253125,-0.0365625
0.451,0.251875,-0.0390625
0.452,0.2509375,-0.0415625
0.453,0.2496875,-0.0440625
0.454,0.24875,-0.0465625
0.455,0.2475,-0.04875
0.456,0.24625,-0.0509375
0.457,0.2453125,-0.053125
0.458,0.2440625,-0.0553125
0.459,0.243125,-0.0571875
0.46,0.241875,-0.0590625
0.461,0.240625,-0.06125
0.462,0.2396875,-0.063125
0.463,0.2384375,-0.0646875
0.464,0.2375,-0.06625
0.465,0.23625,-0.068125
0.466,0.235,-0.069375
0.467,0.2340625,-0.0709375
0.468,0.2328125,-0.0725
0.469,0.2315625,-0.07375
0.47,0.2303125,-0.075
0.471,0.229375,-0.07625
0.472,0.228125,-0.0775
0.473,0.226875,-0.0784375
0.474,0.225625,-0.079375
0.475,0.224375,-0.080625
0.476,0.2234375,-0.08125
0.477,0.2221875,-0.0825
0.478,0.2209375,-0.083125
0.479,0.22,-0.0840625
0.48,0.21875,-0.085
0.481,0.2175,-0.085625
0.482,0.2165625,-0.0865625
0.483,0.215625,-0.086875
0.484,0.214375,-0.0878125
0.485,0.2134375,-0.088125
0.486,0.2125,-0.0884375
0.487,0.21125,-0.0890625
0.488,0.2103125,-0.0890625
0.489,0.209375,-0.089375
0.49,0.208125,-0.0896875
0.491,0.2071875,-0.0896875
0.492,0.20625,-0.0896875
0.493,0.2053125,-0.09
0.494,0.204375,-0.09
0.495,0.2034375,-0.09
0.496,0.2025,-0.090625
0.497,0.2015625,-0.090625
0.498,0.200625,-0.09125
0.499,0.2,-0.0915625
0.5,0.1990625,-0.0921875
0.501,0.1984375,-0.0925
0.502,0.1975,-0.0928125
0.503,0.1965625,-0.0934375
0.504,0.19625,-0.09375
0.505,0.195625,-0.094375
0.506,0.1946875,-0.0946875
0.507,0.194375,-0.095
0.508,0.19375,-0.0953125
0.509,0.1928125,-0.0953125
0.51,0.1925,-0.0953125
0.511,0.1921875,-0.095625
0.512,0.1915625,-0.095625
0.513,0.19125,-0.095625
0.514,0.1909375,-0.0959375
0.515,0.1903125,-0.0959375
0.516,0.1903125,-0.09625
0.517,0.1896875,-0.0965625
0.518,0.1896875,-0.0971875
0.519,0.189375,-0.0975
0.52,0.1890625,-0.098125
0.521,0.18875,-0.0984375
0.522,0.1884375,-0.099375
0.523,0.188125,-0.1
0.524,0.1878125,-0.1003125
0.525,0.1871875,-0.1009375
0.526,0.186875,-0.10125
0.527,0.1865625,-0.1015625
0.528,0.1859375,-0.1021875
0.529,0.185,-0.1021875
0.53,0.1840625,-0.1025
0.531,0.1834375,-0.1025
0.532,0.1825,-0.103125
0.533,0.18125,-0.103125
0.534,0.18,-0.10375
0.535,0.1784375,-0.1040625
0.536,0.176875,-0.1046875
0.537,0.1753125,-0.105625
0.538,0.1734375,-0.10625
0.539,0.17125,-0.1071875
0.54,0.1690625,-0.1084375
0.541,0.1665625,-0.1096875
0.542,0.1640625,-0.1109375
0.543,0.1609375,-0.1121875
0.544,0.158125,-0.1134375
0.545,0.155,-0.115
0.546,0.15125,-0.1165625
0.547,0.1478125,-0.1178125
0.548,0.1440625,-0.119375
0.549,0.14,-0.120625
0.55,0.1359375,-0.1221875
0.551,0.1315625,-0.12375
0.552,0.126875,-0.125
0.553,0.1221875,-0.1265625
0.554,0.1175,-0.128125
0.555,0.1125,-0.13
0.556,0.1071875,-0.1315625
0.557,0.1021875,-0.1334375
0.558,0.0965625,-0.135625
0.559,0.09125,-0.1378125
0.56,0.0859375,-0.14
0.561,0.08,-0.1421875
0.562,0.074375,-0.1446875
0.563,0.0684375,-0.1471875
0.564,0.0628125,-0.1496875
0.565,0.056875,-0.1525
0.566,0.0509375,-0.155
0.567,0.0446875,-0.1578125
0.568,0.03875,-0.160625
0.569,0.033125,-0.163125
0.57,0.0271875,-0.16625
0.571,0.0209375,-0.16875
0.572,0.015,-0.171875
0.573,0.0090625,-0.1746875
0.574,0.0034375,-0.1775
0.575,-0.0025,-0.1803125
0.576,-0.0084375,-0.1834375
0.577,-0.0140625,-0.1865625
0.578,-0.019375,-0.1896875
0.579,-0.0253125,-0.1928125
0.58,-0.030625,-0.19625
0.581,-0.03625,-0.1996875
0.582,-0.0415625,-0.2028125
0.583,-0.046875,-0.2065625
0.584,-0.051875,-0.2096875
0.585,-0.0571875,-0.213125
0.586,-0.0621875,-0.216875
0.587,-0.0671875,-0.22
0.588,-0.071875,-0.22375
0.589,-0.0765625,-0.226875
0.59,-0.08125,-0.2303125
0.591,-0.0859375,-0.23375
0.592,-0.0903125,-0.236875
0.593,-0.094375,-0.24
0.594,-0.0984375,-0.243125
0.595,-0.1025,-0.2459375
0.596,-0.10625,-0.24875
0.597,-0.11,-0.2515625
0.598,-0.11375,-0.254375
0.599,-0.1171875,-0.256875
0.6,-0.120625,-0.259375
0.601,-0.12375,-0.261875
0.602,-0.126875,-0.264375
0.603,-0.1296875,-0.266875
0.604,-0.1325,-0.2690625
0.605,-0.135,-0.27125
0.606,-0.1375,-0.273125
0.607,-0.14,-0.2753125
0.608,-0.1421875,-0.276875
0.609,-0.144375,-0.2784375
0.61,-0.14625,-0.2803125
0.611,-0.1478125,-0.2815625
0.612,-0.1496875,-0.2828125
0.613,-0.1509375,-0.2840625
0.614,-0.1525,-0.2853125
0.615,-0.15375,-0.28625
0.616,-0.155,-0.286875
0.617,-0.1559375,-0.2878125
0.618,-0.1565625,-0.2884375
0.619,-0.1575,-0.28875
0.62,-0.158125,-0.2890625
0.621,-0.1584375,-0.2896875
0.622,-0.1590625,-0.2896875
0.623,-0.159375,-0.2903125
0.624,-0.159375,-0.2903125
0.625,-0.159375,-0.2903125
0.626,-0.159375,-0.2903125
0.627,-0.159375,-0.2903125
0.628,-0.159375,-0.2903125
0.629,-0.1590625,-0.29
0.63,-0.15875,-0.289375
0.631,-0.158125,-0.2890625
0.632,-0.1578125,-0.2884375
0.633,-0.1571875,-0.2878125
0.634,-0.156875,-0.286875
0.635,-0.15625,-0.2859375
0.636,-0.1553125,-0.2853125
0.637,-0.154375,-0.2840625
0.638,-0.15375,-0.2828125
0.639,-0.153125,-0.281875
0.64,-0.1521875,-0.280625
0.641,-0.15125,-0.279375
0.642,-0.150625,-0.278125
0.643,-0.149375,-0.276875
0.644,-0.1484375,-0.2759375
0.645,-0.1478125,-0.274375
0.646,-0.1465625,-0.273125
0.647,-0.1459375,-0.271875
0.648,-0.145,-0.270625
0.649,-0.14375,-0.269375
0.65,-0.1428125,-0.268125
0.651,-0.1415625,-0.2665625
0.652,-0.140625,-0.2653125
0.653,-0.14,-0.26375
0.654,-0.13875,-0.2621875
0.655,-0.1378125,-0.2609375
0.656,-0.136875,-0.259375
0.657,-0.135625,-0.258125
0.658,-0.1346875,-0.2565625
0.659,-0.13375,-0.2553125
0.66,-0.1325,-0.2540625
0.661,-0.1315625,-0.2525
0.662,-0.130625,-0.25125
0.663,-0.1296875,-0.2503125
0.664,-0.12875,-0.2490625
0.665,-0.1278125,-0.2478125
0.666,-0.1265625,-0.246875
0.667,-0.1259375,-0.2459375
0.668,-0.1246875,-0.245
0.669,-0.1240625,-0.24375
0.67,-0.123125,-0.2428125
0.671,-0.1221875,-0.2415625
0.672,-0.12125,-0.240625
0.673,-0.120625,-0.2396875
0.674,-0.1196875,-0.2384375
0.675,-0.1190625,-0.2375
0.676,-0.118125,-0.23625
0.677,-0.1175,-0.2353125
0.678,-0.1165625,-0.234375
0.679,-0.115625,-0.233125
0.68,-0.1153125,-0.2321875
0.681,-0.114375,-0.23125
0.682,-0.11375,-0.23
0.683,-0.113125,-0.2290625
0.684,-0.1121875,-0.228125
0.685,-0.111875,-0.226875
0.686,-0.1109375,-0.22625
0.687,-0.110625,-0.225
0.688,-0.1096875,-0.2240625
0.689,-0.109375,-0.223125
0.69,-0.1084375,-0.221875
0.691,-0.1078125,-0.220625
0.692,-0.1075,-0.219375
0.693,-0.1065625,-0.218125
0.694,-0.10625,-0.216875
0.695,-0.1059375,-0.215625
0.696,-0.105,-0.214375
0.697,-0.1046875,-0.213125
0.698,-0.10375,-0.211875
0.699,-0.1034375,-0.210625
0.7,-0.1028125,-0.2096875
0.701,-0.1025,-0.2084375
0.702,-0.1015625,-0.2071875
0.703,-0.10125,-0.20625
0.704,-0.100625,-0.2053125
0.705,-0.1003125,-0.204375
0.706,-0.099375,-0.203125
0.707,-0.09875,-0.2021875
0.708,-0.0984375,-0.20125
0.709,-0.0978125,-0.2003125
0.71,-0.0975,-0.1990625
0.711,-0.0965625,-0.198125
0.712,-0.0959375,-0.1971875
0.713,-0.095625,-0.1959375
0.714,-0.095,-0.195
0.715,-0.0946875,-0.19375
0.716,-0.09375,-0.1928125
0.717,-0.0934375,-0.1915625
0.718,-0.093125,-0.190625
0.719,-0.0921875,-0.1896875
0.72,-0.091875,-0.1884375
0.721,-0.0915625,-0.1878125
0.722,-0.0909375,-0.1865625
0.723,-0.090625,-0.1859375
0.724,-0.09,-0.185
0.725,-0.0896875,-0.1840625
0.726,-0.0890625,-0.1834375
0.727,-0.08875,-0.1825
0.728,-0.088125,-0.181875
0.729,-0.0878125,-0.1809375
0.73,-0.0875,-0.18
0.731,-0.0871875,-0.1790625
0.732,-0.0865625,-0.178125
0.733,-0.08625,-0.1775
0.734,-0.0859375,-0.17625
0.735,-0.085625,-0.1753125
0.736,-0.085,-0.1740625
0.737,-0.0846875,-0.173125
0.738,-0.084375,-0.1725
0.739,-0.0840625,-0.17125
0.74,-0.08375,-0.170625
0.741,-0.0834375,-0.1696875
0.742,-0.083125,-0.1690625
0.743,-0.0828125,-0.168125
0.744,-0.0825,-0.1671875
0.745,-0.0821875,-0.1665625
0.746,-0.0815625,-0.16625
0.747,-0.0815625,-0.1653125
0.748,-0.08125,-0.164375
0.749,-0.0809375,-0.1640625
0.75,-0.080625,-0.163125
0.751,-0.0803125,-0.1625
0.752,-0.08,-0.1615625
0.753,-0.0796875,-0.160625
0.754,-0.079375,-0.16
0.755,-0.0790625,-0.1590625
0.756,-0.07875,-0.1584375
0.757,-0.0784375,-0.1575
0.758,-0.078125,-0.1565625
0.759,-0.0778125,-0.1559375
0.76,-0.0775,-0.1553125
0.761,-0.0771875,-0.154375
0.762,-0.076875,-0.15375
0.763,-0.0765625,-0.1534375
0.764,-0.0759375,-0.153125
0.765,-0.0759375,-0.1525
0.766,-0.0753125,-0.151875
0.767,-0.0753125,-0.1515625
0.768,-0.0746875,-0.1509375
0.769,-0.074375,-0.1503125
0.77,-0.0740625,-0.15
0.771,-0.07375,-0.1490625
0.772,-0.0734375,-0.14875
0.773,-0.073125,-0.1478125
0.774,-0.0725,-0.146875
0.775,-0.0721875,-0.1465625
0.776,-0.071875,-0.145625
0.777,-0.0715625,-0.145
0.778,-0.0709375,-0.1440625
0.779,-0.070625,-0.14375
0.78,-0.0703125,-0.1428125
0.781,-0.0696875,-0.1425
0.782,-0.069375,-0.141875
0.783,-0.0690625,-0.1415625
0.784,-0.0684375,-0.1409375
0.785,-0.068125,-0.140625
0.786,-0.0678125,-0.1403125
0.787,-0.0671875,-0.1396875
0.788,-0.066875,-0.139375
0.789,-0.0665625,-0.1390625
0.79,-0.06625,-0.1384375
0.791,-0.065625,-0.1378125
0.792,-0.065625,-0.1375
0.793,-0.065,-0.136875
0.794,-0.065,-0.1365625
0.795,-0.0646875,-0.135625
0.796,-0.0640625,-0.135
0.797,-0.0640625,-0.1346875
0.798,-0.06375,-0.134375
0.799,-0.063125,-0.13375
0.8,-0.063125,-0.1334375
0.801,-0.0628125,-0.1328125
0.802,-0.0625,-0.1328125
0.803,-0.0621875,-0.1325
0.804,-0.061875,-0.1325
0.805,-0.0615625,-0.1321875
0.806,-0.06125,-0.1321875
0.807,-0.0609375,-0.1321875
0.808,-0.060625,-0.1321875
0.809,-0.0603125,-0.1321875
0.81,-0.06,-0.131875
0.811,-0.0596875,-0.131875
0.812,-0.059375,-0.131875
0.813,-0.0590625,-0.1315625
0.814,-0.05875,-0.1315625
0.815,-0.058125,-0.1309375
0.816,-0.0578125,-0.1309375
0.817,-0.0575,-0.130625
0.818,-0.0571875,-0.1303125
0.819,-0.0565625,-0.1303125
0.82,-0.05625,-0.1296875
0.821,-0.0559375,-0.129375
0.822,-0.0553125,-0.129375
0.823,-0.055,-0.1290625
0.824,-0.0546875,-0.1290625
0.825,-0.0540625,-0.12875
0.826,-0.05375,-0.128125
0.827,-0.053125,-0.128125
0.828,-0.0528125,-0.1275
0.829,-0.0525,-0.1271875
0.83,-0.051875,-0.126875
0.831,-0.0515625,-0.1259375
0.832,-0.05125,-0.125625
0.833,-0.050625,-0.1246875
0.834,-0.0503125,-0.1240625
0.835,-0.0496875,-0.123125
0.836,-0.049375,-0.1225
0.837,-0.0490625,-0.1215625
0.838,-0.0484375,-0.1209375
0.839,-0.048125,-0.12
0.84,-0.0478125,-0.119375
0.841,-0.0475,-0.1184375
0.842,-0.046875,-0.118125
0.843,-0.0465625,-0.1171875
0.844,-0.04625,-0.116875
0.845,-0.0459375,-0.1159375
0.846,-0.0453125,-0.1153125
0.847,-0.0453125,-0.115
0.848,-0.0446875,-0.1140625
0.849,-0.044375,-0.1134375
0.85,-0.0440625,-0.1128125
0.851,-0.04375,-0.1121875
0.852,-0.0434375,-0.11125
0.853,-0.043125,-0.1103125
0.854,-0.0425,-0.1096875
0.855,-0.0421875,-0.1090625
0.856,-0.041875,-0.108125
0.857,-0.0415625,-0.1075
0.858,-0.0409375,-0.1065625
0.859,-0.040625,-0.10625
0.86,-0.0403125,-0.1053125
0.861,-0.0396875,-0.1046875
0.862,-0.039375,-0.104375
0.863,-0.0390625,-0.1040625
0.864,-0.0384375,-0.1034375
0.865,-0.038125,-0.103125
0.866,-0.0378125,-0.1025
0.867,-0.0371875,-0.1021875
0.868,-0.036875,-0.1015625
0.869,-0.03625,-0.10125
0.87,-0.0359375,-0.100625
0.871,-0.0353125,-0.1003125
0.872,-0.035,-0.099375
0.873,-0.034375,-0.0990625
0.874,-0.0340625,-0.098125
0.875,-0.0334375,-0.0975
0.876,-0.033125,-0.0965625
0.877,-0.0328125,-0.09625
0.878,-0.0321875,-0.095625
0.879,-0.031875,-0.0946875
0.88,-0.0315625,-0.09375
0.881,-0.03125,-0.0934375
0.882,-0.030625,-0.0925
0.883,-0.0303125,-0.0921875
0.884,-0.03,-0.0915625
0.885,-0.0296875,-0.09125
0.886,-0.0290625,-0.090625
0.887,-0.0290625,-0.0896875
0.888,-0.0284375,-0.089375
0.889,-0.028125,-0.08875
0.89,-0.0278125,-0.088125
0.891,-0.0275,-0.0871875
0.892,-0.0275,-0.086875
0.893,-0.026875,-0.0859375
0.894,-0.0265625,-0.0853125
0.895,-0.0265625,-0.084375
0.896,-0.02625,-0.0840625
0.897,-0.0259375,-0.083125
0.898,-0.0259375,-0.0821875
0.899,-0.0259375,-0.081875
0.9,-0.025625,-0.0809375
0.901,-0.025625,-0.080625
0.902,-0.025625,-0.08
0.903,-0.0253125,-0.0796875
0.904,-0.0253125,-0.0790625
0.905,-0.0253125,-0.07875
0.906,-0.0253125,-0.0784375
0.907,-0.0253125,-0.0778125
0.908,-0.025,-0.0775
0.909,-0.025,-0.0771875
0.91,-0.025,-0.0765625
0.911,-0.025,-0.07625
0.912,-0.025,-0.075625
0.913,-0.025,-0.0753125
0.914,-0.0246875,-0.0746875
0.915,-0.0246875,-0.074375
0.916,-0.0246875,-0.0740625
0.917,-0.024375,-0.07375
0.918,-0.024375,-0.073125
0.919,-0.024375,-0.073125
0.92,-0.0240625,-0.0728125
0.921,-0.0240625,-0.0725
0.922,-0.02375,-0.0725
0.923,-0.02375,-0.0725
0.924,-0.02375,-0.0725
0.925,-0.0234375,-0.0721875
0.926,-0.0234375,-0.0721875
0.927,-0.023125,-0.0721875
0.928,-0.0228125,-0.071875
0.929,-0.0225,-0.071875
0.93,-0.0225,-0.071875
0.931,-0.0221875,-0.0715625
0.932,-0.021875,-0.07125
0.933,-0.021875,-0.07125
0.934,-0.02125,-0.0709375
0.935,-0.0209375,-0.070625
0.936,-0.0209375,-0.070625
0.937,-0.0203125,-0.0703125
0.938,-0.0203125,-0.07
0.939,-0.0196875,-0.07
0.94,-0.019375,-0.0696875
0.941,-0.0190625,-0.0696875
0.942,-0.01875,-0.0696875
0.943,-0.0184375,-0.0696875
0.944,-0.018125,-0.0696875
0.945,-0.0178125,-0.0696875
0.946,-0.0175,-0.0696875
0.947,-0.0171875,-0.069375
0.948,-0.016875,-0.069375
0.949,-0.016875,-0.069375
0.95,-0.01625,-0.0690625
0.951,-0.01625,-0.06875
0.952,-0.0159375,-0.0684375
0.953,-0.015625,-0.068125
0.954,-0.015625,-0.0678125
0.955,-0.0153125,-0.0675
0.956,-0.015,-0.066875
0.957,-0.0146875,-0.0665625
0.958,-0.0146875,-0.06625
0.959,-0.014375,-0.0659375
0.96,-0.0140625,-0.0653125
0.961,-0.0140625,-0.0653125
0.962,-0.01375,-0.065
0.963,-0.0134375,-0.0646875
0.964,-0.0134375,-0.064375
0.965,-0.013125,-0.0640625
0.966,-0.013125,-0.06375
0.967,-0.013125,-0.06375
0.968,-0.0128125,-0.063125
0.969,-0.0128125,-0.0628125
0.97,-0.0128125,-0.0625
0.971,-0.0125,-0.061875
0.972,-0.0125,-0.0615625
0.973,-0.0125,-0.06125
0.974,-0.0125,-0.060625
0.975,-0.0125,-0.06
0.976,-0.0121875,-0.0596875
0.977,-0.0121875,-0.0590625
0.978,-0.0121875,-0.05875
0.979,-0.0121875,-0.058125
0.98,-0.0121875,-0.0578125
0.981,-0.0121875,-0.0575
0.982,-0.011875,-0.0575
0.983,-0.011875,-0.0571875
0.984,-0.011875,-0.056875
0.985,-0.011875,-0.056875
0.986,-0.011875,-0.0565625
0.987,-0.0115625,-0.0565625
0.988,-0.0115625,-0.05625
0.989,-0.0115625,-0.05625
0.99,-0.0115625,-0.0559375
0.991,-0.0115625,-0.055625
0.992,-0.01125,-0.055625
0.993,-0.01125,-0.055
0.994,-0.01125,-0.0546875
0.995,-0.01125,-0.0546875
0.996,-0.0109375,-0.0540625
0.997,-0.0109375,-0.05375
0.998,-0.0109375,-0.0534375
0.999,-0.010625,-0.053125
1,-0.010625,-0.0528125
1.001,-0.010625,-0.0528125
1.002,-0.010625,-0.0521875
1.003,-0.0103125,-0.0521875
1.004,-0.0103125,-0.051875
1.005,-0.0103125,-0.051875
1.006,-0.01,-0.0515625
1.007,-0.01,-0.05125
1.008,-0.01,-0.05125
1.009,-0.0096875,-0.050625
1.01,-0.0096875,-0.050625
1.011,-0.0096875,-0.0503125
1.012,-0.0096875,-0.0496875
1.013,-0.009375,-0.049375
1.014,-0.009375,-0.0490625
1.015,-0.009375,-0.04875
1.016,-0.009375,-0.048125
1.017,-0.009375,-0.0478125
1.018,-0.009375,-0.0471875
1.019,-0.009375,-0.046875
1.02,-0.009375,-0.0465625
1.021,-0.009375,-0.04625
1.022,-0.009375,-0.045625
1.023,-0.009375,-0.045625
1.024,-0.009375,-0.0453125
1.025,-0.009375,-0.045
1.026,-0.0096875,-0.0446875
1.027,-0.0096875,-0.044375
1.028,-0.0096875,-0.0440625
1.029,-0.0096875,-0.0440625
1.03,-0.0096875,-0.0434375
1.031,-0.0096875,-0.043125
1.032,-0.01,-0.0428125
1.033,-0.01,-0.0425
1.034,-0.01,-0.041875
1.035,-0.0103125,-0.0415625
1.036,-0.0103125,-0.0409375
1.037,-0.0103125,-0.040625
1.038,-0.0103125,-0.04
1.039,-0.0103125,-0.0396875
1.04,-0.010625,-0.039375
1.041,-0.010625,-0.03875
1.042,-0.010625,-0.0384375
1.043,-0.010625,-0.038125
1.044,-0.010625,-0.0378125
1.045,-0.010625,-0.0375
1.046,-0.010625,-0.0371875
1.047,-0.0109375,-0.0371875
1.048,-0.0109375,-0.0365625
1.049,-0.0109375,-0.0365625
1.05,-0.0109375,-0.03625
1.051,-0.0109375,-0.035625
1.052,-0.0109375,-0.035625
1.053,-0.0109375,-0.035
1.054,-0.0109375,-0.035
1.055,-0.0109375,-0.034375
1.056,-0.0109375,-0.034375
1.057,-0.0109375,-0.0340625
1.058,-0.0109375,-0.03375
1.059,-0.0109375,-0.03375
1.06,-0.0109375,-0.0334375
1.061,-0.0109375,-0.0334375
1.062,-0.0109375,-0.0334375
1.063,-0.0109375,-0.0334375
1.064,-0.0109375,-0.0334375
1.065,-0.0109375,-0.0334375
1.066,-0.0109375,-0.0334375
1.067,-0.0109375,-0.0334375
1.068,-0.0109375,-0.0334375
1.069,-0.0109375,-0.03375
1.07,-0.0109375,-0.03375
1.071,-0.0109375,-0.03375
1.072,-0.0109375,-0.0340625
1.073,-0.0109375,-0.0340625
1.074,-0.010625,-0.0340625
1.075,-0.010625,-0.0340625
1.076,-0.010625,-0.0340625
1.077,-0.010625,-0.0340625
1.078,-0.010625,-0.0340625
1.079,-0.0103125,-0.034375
1.08,-0.0103125,-0.034375
1.081,-0.0103125,-0.034375
1.082,-0.01,-0.0346875
1.083,-0.01,-0.0346875
1.084,-0.01,-0.035
1.085,-0.01,-0.035
1.086,-0.0096875,-0.035
1.087,-0.0096875,-0.0353125
1.088,-0.0096875,-0.0353125
1.089,-0.0096875,-0.0353125
1.09,-0.0096875,-0.035625
1.091,-0.0096875,-0.035625
1.092,-0.0096875,-0.035625
1.093,-0.0096875,-0.035625
1.094,-0.0096875,-0.035625
1.095,-0.0096875,-0.035625
1.096,-0.0096875,-0.035625
1.097,-0.0096875,-0.035625
1.098,-0.01,-0.035625
1.099,-0.01,-0.0359375
1.1,-0.01,-0.0359375
1.101,-0.0103125,-0.0359375
1.102,-0.0103125,-0.03625
1.103,-0.0103125,-0.0365625
1.104,-0.010625,-0.036875
1.105,-0.010625,-0.0371875
1.106,-0.0109375,-0.0375
1.107,-0.01125,-0.0378125
1.108,-0.01125,-0.0384375
1.109,-0.0115625,-0.03875
1.11,-0.011875,-0.0390625
1.111,-0.011875,-0.039375
1.112,-0.0121875,-0.04
1.113,-0.0125,-0.0403125
1.114,-0.0125,-0.040625
1.115,-0.0128125,-0.0409375
1.116,-0.0128125,-0.04125
1.117,-0.013125,-0.041875
1.118,-0.013125,-0.0421875
1.119,-0.013125,-0.0428125
1.12,-0.0134375,-0.043125
1.121,-0.0134375,-0.0434375
1.122,-0.0134375,-0.0440625
1.123,-0.0134375,-0.0446875
1.124,-0.01375,-0.045
1.125,-0.01375,-0.045625
1.126,-0.0134375,-0.04625
1.127,-0.0134375,-0.046875
1.128,-0.0134375,-0.0471875
1.129,-0.0134375,-0.0475
1.13,-0.0134375,-0.0478125
1.131,-0.013125,-0.0484375
1.132,-0.013125,-0.0484375
1.133,-0.013125,-0.04875
1.134,-0.0128125,-0.04875
1.135,-0.0128125,-0.04875
1.136,-0.0125,-0.0490625
1.137,-0.0121875,-0.0490625
1.138,-0.011875,-0.0490625
1.139,-0.011875,-0.0490625
1.14,-0.0115625,-0.0490625
1.141,-0.01125,-0.0490625
1.142,-0.01125,-0.0490625
1.143,-0.0109375,-0.0490625
1.144,-0.010625,-0.0490625
1.145,-0.010625,-0.0490625
1.146,-0.0103125,-0.0490625
1.147,-0.01,-0.0490625
1.148,-0.01,-0.0490625
1.149,-0.0096875,-0.04875
1.15,-0.009375,-0.04875
1.151,-0.009375,-0.04875
1.152,-0.0090625,-0.0484375
1.153,-0.0090625,-0.048125
1.154,-0.00875,-0.048125
1.155,-0.00875,-0.0475
1.156,-0.00875,-0.0475
1.157,-0.0084375,-0.046875
1.158,-0.0084375,-0.0465625
1.159,-0.0084375,-0.0465625
1.16,-0.0084375,-0.0459375
1.161,-0.0084375,-0.0459375
1.162,-0.0084375,-0.045625
1.163,-0.0084375,-0.0453125
1.164,-0.0084375,-0.0453125
1.165,-0.0084375,-0.0446875
1.166,-0.0084375,-0.0446875
1.167,-0.00875,-0.044375
1.168,-0.00875,-0.0440625
1.169,-0.00875,-0.0440625
1.17,-0.00875,-0.0434375
1.171,-0.00875,-0.0434375
1.172,-0.00875,-0.0428125
1.173,-0.00875,-0.0425
1.174,-0.00875,-0.041875
1.175,-0.00875,-0.0415625
1.176,-0.0090625,-0.0409375
1.177,-0.0090625,-0.040625
1.178,-0.0090625,-0.0403125
1.179,-0.0090625,-0.039375
1.18,-0.0090625,-0.0390625
1.181,-0.0090625,-0.03875
1.182,-0.0090625,-0.038125
1.183,-0.0090625,-0.0378125
1.184,-0.0090625,-0.0371875
1.185,-0.0090625,-0.036875
1.186,-0.0090625,-0.03625
1.187,-0.0090625,-0.0359375
1.188,-0.0090625,-0.0353125
1.189,-0.00875,-0.035
1.19,-0.00875,-0.034375
1.191,-0.00875,-0.0340625
1.192,-0.0084375,-0.03375
1.193,-0.0084375,-0.033125
1.194,-0.0084375,-0.0328125
1.195,-0.008125,-0.0321875
1.196,-0.008125,-0.031875
1.197,-0.008125,-0.0315625
1.198,-0.0078125,-0.03125
1.199,-0.0078125,-0.030625
1.2,-0.0075,-0.030625
1.201,-0.0075,-0.0303125
1.202,-0.0071875,-0.03
1.203,-0.0071875,-0.03
1.204,-0.006875,-0.0296875
1.205,-0.006875,-0.0296875
1.206,-0.0065625,-0.0296875
1.207,-0.00625,-0.029375
1.208,-0.00625,-0.029375
1.209,-0.00625,-0.029375
1.21,-0.0059375,-0.029375
1.211,-0.0059375,-0.0290625
1.212,-0.005625,-0.0290625
1.213,-0.005625,-0.0290625
1.214,-0.0053125,-0.0290625
1.215,-0.005,-0.0290625
1.216,-0.005,-0.02875
1.217,-0.0046875,-0.02875
1.218,-0.004375,-0.02875
1.219,-0.004375,-0.02875
1.22,-0.0040625,-0.02875
1.221,-0.0040625,-0.02875
1.222,-0.00375,-0.0290625
1.223,-0.00375,-0.0290625
1.224,-0.0034375,-0.0290625
1.225,-0.0034375,-0.0290625
1.226,-0.003125,-0.0290625
1.227,-0.003125,-0.029375
1.228,-0.0028125,-0.029375
1.229,-0.0028125,-0.029375
1.23,-0.0025,-0.029375
1.231,-0.0025,-0.029375
1.232,-0.0025,-0.0290625
1.233,-0.0021875,-0.0290625
1.234,-0.0021875,-0.0290625
1.235,-0.0021875,-0.0290625
1.236,-0.001875,-0.0290625
1.237,-0.001875,-0.02875
1.238,-0.0015625,-0.02875
1.239,-0.0015625,-0.02875
1.24,-0.0015625,-0.02875
1.241,-0.0015625,-0.02875
1.242,-0.0015625,-0.02875
1.243,-0.00125,-0.02875
1.244,-0.00125,-0.02875
1.245,-0.00125,-0.02875
1.246,-0.00125,-0.02875
1.247,-0.00125,-0.02875
1.248,-0.00125,-0.02875
1.249,-0.00125,-0.02875
1.25,-0.0015625,-0.02875
1.251,-0.0015625,-0.02875
1.252,-0.0015625,-0.0284375
1.253,-0.0015625,-0.0284375
1.254,-0.0015625,-0.0284375
1.255,-0.0015625,-0.028125
1.256,-0.0015625,-0.028125
1.257,-0.0015625,-0.028125
1.258,-0.0015625,-0.0278125
1.259,-0.0015625,-0.0278125
1.26,-0.0015625,-0.0275
1.261,-0.001875,-0.0271875
1.262,-0.001875,-0.0271875
1.263,-0.001875,-0.026875
1.264,-0.001875,-0.026875
1.265,-0.001875,-0.026875
1.266,-0.001875,-0.0265625
1.267,-0.0021875,-0.0265625
1.268,-0.0021875,-0.02625
1.269,-0.0021875,-0.02625
1.27,-0.0021875,-0.0259375
1.271,-0.0021875,-0.025625
1.272,-0.0021875,-0.025625
1.273,-0.0021875,-0.025625
1.274,-0.0021875,-0.025
1.275,-0.0021875,-0.025
1.276,-0.0021875,-0.0246875
1.277,-0.0021875,-0.024375
1.278,-0.0021875,-0.0240625
1.279,-0.0021875,-0.02375
1.28,-0.0021875,-0.02375
1.281,-0.001875,-0.0234375
1.282,-0.001875,-0.0228125
1.283,-0.001875,-0.0225
1.284,-0.001875,-0.0225
1.285,-0.001875,-0.0221875
1.286,-0.0015625,-0.021875
1.287,-0.0015625,-0.0215625
1.288,-0.0015625,-0.02125
1.289,-0.0015625,-0.0209375
1.29,-0.0015625,-0.020625
1.291,-0.00125,-0.0203125
1.292,-0.00125,-0.02
1.293,-0.00125,-0.0196875
1.294,-0.00125,-0.019375
1.295,-0.00125,-0.01875
1.296,-0.00125,-0.0184375
1.297,-0.0009375,-0.018125
1.298,-0.0009375,-0.0175
1.299,-0.00125,-0.0171875
1.3,-0.00125,-0.016875
1.301,-0.00125,-0.0165625
1.302,-0.00125,-0.01625
1.303,-0.00125,-0.015625
1.304,-0.00125,-0.0153125
1.305,-0.00125,-0.015
1.306,-0.0015625,-0.0146875
1.307,-0.0015625,-0.0146875
1.308,-0.0015625,-0.0140625
1.309,-0.001875,-0.0140625
1.31,-0.001875,-0.01375
1.311,-0.001875,-0.01375
1.312,-0.0021875,-0.0134375
1.313,-0.0025,-0.013125
1.314,-0.0025,-0.013125
1.315,-0.0028125,-0.0128125
1.316,-0.003125,-0.0128125
1.317,-0.003125,-0.0125
1.318,-0.003125,-0.0125
1.319,-0.0034375,-0.0125
1.32,-0.00375,-0.0121875
1.321,-0.00375,-0.0121875
1.322,-0.0040625,-0.0121875
1.323,-0.004375,-0.011875
1.324,-0.004375,-0.011875
1.325,-0.004375,-0.011875
1.326,-0.0046875,-0.011875
1.327,-0.0046875,-0.011875
1.328,-0.0046875,-0.011875
1.329,-0.005,-0.011875
1.33,-0.005,-0.011875
1.331,-0.005,-0.011875
1.332,-0.005,-0.011875
1.333,-0.005,-0.011875
1.334,-0.005,-0.011875
1.335,-0.005,-0.0115625
1.336,-0.005,-0.0115625
1.337,-0.005,-0.0115625
1.338,-0.005,-0.0115625
1.339,-0.005,-0.0115625
1.34,-0.0046875,-0.01125
1.341,-0.0046875,-0.01125
1.342,-0.0046875,-0.01125
1.343,-0.004375,-0.0109375
1.344,-0.004375,-0.0109375
1.345,-0.004375,-0.010625
1.346,-0.0040625,-0.010625
1.347,-0.00375,-0.010625
1.348,-0.00375,-0.0103125
1.349,-0.0034375,-0.0103125
1.35,-0.003125,-0.0103125
1.351,-0.003125,-0.01
1.352,-0.0028125,-0.01
1.353,-0.0028125,-0.01
1.354,-0.0025,-0.0096875
1.355,-0.0021875,-0.0096875
1.356,-0.0021875,-0.009375
1.357,-0.0015625,-0.009375
1.358,-0.0015625,-0.009375
1.359,-0.00125,-0.009375
1.36,-0.00125,-0.009375
1.361,-0.0009375,-0.009375
1.362,-0.000625,-0.0090625
1.363,-0.000625,-0.0090625
1.364,-0.0003125,-0.009375
1.365,0,-0.009375
1.366,0,-0.009375
1.367,0,-0.009375
1.368,0.0003125,-0.009375
1.369,0.0003125,-0.009375
1.37,0.0003125,-0.009375
1.371,0.000625,-0.009375
1.372,0.000625,-0.009375
1.373,0.000625,-0.0096875
1.374,0.000625,-0.0096875
1.375,0.000625,-0.0096875
1.376,0.0009375,-0.0096875
1.377,0.0009375,-0.0096875
1.378,0.000625,-0.01
1.379,0.000625,-0.01
1.38,0.000625,-0.01
1.381,0.000625,-0.01
1.382,0.000625,-0.01
1.383,0.000625,-0.0103125
1.384,0.0003125,-0.0103125
1.385,0.0003125,-0.0103125
1.386,0.0003125,-0.0103125
1.387,0,-0.0103125
1.388,0,-0.0103125
1.389,0,-0.0103125
1.39,-0.0003125,-0.0103125
1.391,-0.000625,-0.0103125
1.392,-0.000625,-0.0103125
1.393,-0.0009375,-0.0103125
1.394,-0.0009375,-0.0103125
1.395,-0.00125,-0.0103125
1.396,-0.0015625,-0.0103125
1.397,-0.0015625,-0.0103125
1.398,-0.0015625,-0.01
1.399,-0.001875,-0.01
1.4,-0.0021875,-0.01
1.401,-0.0021875,-0.0096875
1.402,-0.0025,-0.0096875
1.403,-0.0025,-0.0096875
1.404,-0.0028125,-0.0096875
1.405,-0.0028125,-0.0096875
1.406,-0.0028125,-0.0096875
1.407,-0.003125,-0.009375
1.408,-0.003125,-0.009375
1.409,-0.0034375,-0.009375
1.41,-0.0034375,-0.009375
1.411,-0.0034375,-0.0096875
1.412,-0.0034375,-0.0096875
1.413,-0.0034375,-0.0096875
1.414,-0.0034375,-0.0096875
1.415,-0.0034375,-0.0096875
1.416,-0.0034375,-0.0096875
1.417,-0.0034375,-0.0096875
1.418,-0.0034375,-0.0096875
1.419,-0.0034375,-0.0096875
1.42,-0.003125,-0.0096875
1.421,-0.003125,-0.0096875
1.422,-0.003125,-0.01
1.423,-0.0028125,-0.01
1.424,-0.0028125,-0.0103125
1.425,-0.0025,-0.0103125
1.426,-0.0021875,-0.0103125
1.427,-0.001875,-0.010625
1.428,-0.001875,-0.010625
1.429,-0.0015625,-0.0109375
1.43,-0.00125,-0.01125
1.431,-0.0009375,-0.01125
1.432,-0.000625,-0.0115625
1.433,-0.000625,-0.0115625
1.434,-0.0003125,-0.011875
1.435,0.0003125,-0.011875
1.436,0.000625,-0.011875
1.437,0.000625,-0.0121875
1.438,0.0009375,-0.0121875
1.439,0.00125,-0.0121875
1.44,0.0015625,-0.0125
1.441,0.001875,-0.0125
1.442,0.001875,-0.0128125
1.443,0.0021875,-0.0128125
1.444,0.0025,-0.0128125
1.445,0.0025,-0.013125
1.446,0.0028125,-0.013125
1.447,0.0028125,-0.0134375
1.448,0.003125,-0.0134375
1.449,0.003125,-0.0134375
1.45,0.003125,-0.01375
1.451,0.003125,-0.01375
1.452,0.003125,-0.01375
1.453,0.003125,-0.01375
1.454,0.003125,-0.01375
1.455,0.003125,-0.0140625
1.456,0.003125,-0.0140625
1.457,0.003125,-0.0140625
1.458,0.0028125,-0.0140625
1.459,0.0028125,-0.0140625
1.46,0.0028125,-0.01375
1.461,0.0025,-0.01375
1.462,0.0025,-0.01375
1.463,0.0021875,-0.01375
1.464,0.001875,-0.01375
1.465,0.001875,-0.01375
1.466,0.0015625,-0.01375
1.467,0.00125,-0.01375
1.468,0.00125,-0.01375
1.469,0.000625,-0.01375
1.47,0.000625,-0.01375
1.471,0.0003125,-0.0134375
1.472,0,-0.0134375
1.473,0,-0.0134375
1.474,-0.0003125,-0.013125
1.475,-0.0003125,-0.013125
1.476,-0.000625,-0.013125
1.477,-0.0009375,-0.013125
1.478,-0.0009375,-0.0128125
1.479,-0.00125,-0.0128125
1.48,-0.00125,-0.0125
1.481,-0.0015625,-0.0125
1.482,-0.0015625,-0.0125
1.483,-0.0015625,-0.0125
1.484,-0.001875,-0.0125
1.485,-0.001875,-0.0128125
1.486,-0.001875,-0.0128125
1.487,-0.001875,-0.0128125
1.488,-0.001875,-0.0128125
1.489,-0.001875,-0.0128125
1.49,-0.001875,-0.013125
1.491,-0.001875,-0.013125
1.492,-0.001875,-0.0134375
1.493,-0.001875,-0.0134375
1.494,-0.001875,-0.0134375
1.495,-0.001875,-0.01375
1.496,-0.0015625,-0.01375
1.497,-0.0015625,-0.01375
1.498,-0.0015625,-0.0140625
1.499,-0.0015625,-0.0140625
1.5,-0.00125,-0.0140625
1.501,-0.00125,-0.0140625
1.502,-0.00125,-0.014375
1.503,-0.0009375,-0.014375
1.504,-0.0009375,-0.014375
1.505,-0.0009375,-0.0146875
1.506,-0.000625,-0.0146875
1.507,-0.000625,-0.015
1.508,-0.000625,-0.015
1.509,-0.000625,-0.015
1.51,-0.0003125,-0.0153125
1.511,-0.0003125,-0.0153125
1.512,-0.0003125,-0.0153125
1.513,0,-0.0153125
1.514,0,-0.0153125
1.515,0,-0.0153125
1.516,0,-0.015625
1.517,0,-0.015625
1.518,0.0003125,-0.015625
1.519,0.0003125,-0.015625
1.52,0.0003125,-0.015625
1.521,0.0003125,-0.0159375
1.522,0.0003125,-0.0159375
1.523,0.0003125,-0.0159375
1.524,0.0003125,-0.01625
1.525,0.0003125,-0.0165625
1.526,0.0003125,-0.016875
1.527,0,-0.016875
1.528,0,-0.0175
1.529,0,-0.0175
1.53,0,-0.018125
1.531,0,-0.018125
1.532,0,-0.01875
1.533,0,-0.0190625
1.534,-0.0003125,-0.019375
1.535,-0.0003125,-0.02
1.536,-0.0003125,-0.0203125
1.537,-0.0003125,-0.020625
1.538,-0.0003125,-0.0209375
1.539,-0.000625,-0.0215625
1.54,-0.000625,-0.021875
1.541,-0.000625,-0.0225
1.542,-0.000625,-0.0228125
1.543,-0.0009375,-0.023125
1.544,-0.0009375,-0.0234375
1.545,-0.0009375,-0.0240625
1.546,-0.0009375,-0.024375
1.547,-0.00125,-0.0246875
1.548,-0.00125,-0.025
1.549,-0.00125,-0.0253125
1.55,-0.00125,-0.0253125
1.551,-0.00125,-0.025625
1.552,-0.00125,-0.0259375
1.553,-0.00125,-0.0259375
1.554,-0.0015625,-0.0259375
1.555,-0.0015625,-0.02625
1.556,-0.00125,-0.02625
1.557,-0.00125,-0.0259375
1.558,-0.00125,-0.0259375
1.559,-0.00125,-0.0259375
1.56,-0.00125,-0.0259375
1.561,-0.00125,-0.025625
1.562,-0.00125,-0.025625
1.563,-0.00125,-0.0253125
1.564,-0.0009375,-0.025
1.565,-0.0009375,-0.025
1.566,-0.0009375,-0.025
1.567,-0.000625,-0.024375
1.568,-0.000625,-0.024375
1.569,-0.0003125,-0.0240625
1.57,-0.0003125,-0.0240625
1.571,0,-0.0234375
1.572,0,-0.0234375
1.573,0.0003125,-0.023125
1.574,0.000625,-0.0228125
1.575,0.000625,-0.0225
1.576,0.0009375,-0.0221875
1.577,0.00125,-0.021875
1.578,0.00125,-0.021875
1.579,0.00125,-0.0215625
1.58,0.001875,-0.0209375
1.581,0.001875,-0.020625
1.582,0.001875,-0.020625
1.583,0.0021875,-0.0203125
1.584,0.0025,-0.02
1.585,0.0028125,-0.02
1.586,0.0028125,-0.0196875
1.587,0.0028125,-0.019375
1.588,0.003125,-0.019375
1.589,0.0034375,-0.019375
1.59,0.0034375,-0.0190625
1.591,0.00375,-0.01875
1.592,0.00375,-0.01875
1.593,0.00375,-0.0184375
1.594,0.0040625,-0.0184375
1.595,0.0040625,-0.018125
1.596,0.0040625,-0.018125
1.597,0.004375,-0.0178125
1.598,0.004375,-0.0178125
1.599,0.004375,-0.0178125
1.6,0.004375,-0.0175
1.601,0.004375,-0.0175
1.602,0.004375,-0.0175
1.603,0.004375,-0.0171875
1.604,0.004375,-0.0171875
1.605,0.004375,-0.0171875
1.606,0.004375,-0.0171875
1.607,0.0040625,-0.0171875
1.608,0.0040625,-0.0171875
1.609,0.0040625,-0.0171875
1.61,0.0040625,-0.016875
1.611,0.0040625,-0.016875
1.612,0.00375,-0.016875
1.613,0.00375,-0.016875
1.614,0.00375,-0.0165625
1.615,0.00375,-0.0165625
1.616,0.0034375,-0.0165625
1.617,0.0034375,-0.01625
1.618,0.0034375,-0.01625
1.619,0.003125,-0.01625
1.62,0.003125,-0.0159375
1.621,0.003125,-0.0159375
1.622,0.0028125,-0.0159375
1.623,0.0028125,-0.015625
1.624,0.0028125,-0.015625
1.625,0.0025,-0.015625
1.626,0.0025,-0.0153125
1.627,0.0025,-0.0153125
1.628,0.0025,-0.0153125
1.629,0.0025,-0.0153125
1.63,0.0021875,-0.015
1.631,0.0021875,-0.015
1.632,0.0021875,-0.015
1.633,0.0025,-0.015
1.634,0.0025,-0.015
1.635,0.0025,-0.0146875
1.636,0.0025,-0.0146875
1.637,0.0025,-0.0146875
1.638,0.0025,-0.0146875
1.639,0.0028125,-0.0146875
1.64,0.0028125,-0.014375
1.641,0.0028125,-0.014375
1.642,0.003125,-0.014375
1.643,0.003125,-0.014375
1.644,0.0034375,-0.014375
1.645,0.0034375,-0.014375
1.646,0.00375,-0.014375
1.647,0.00375,-0.014375
1.648,0.0040625,-0.014375
1.649,0.004375,-0.014375
1.65,0.004375,-0.014375
1.651,0.0046875,-0.014375
1.652,0.005,-0.0140625
1.653,0.005,-0.0140625
1.654,0.0053125,-0.0140625
1.655,0.0053125,-0.01375
1.656,0.005625,-0.01375
1.657,0.0059375,-0.0134375
1.658,0.0059375,-0.0134375
1.659,0.00625,-0.013125
1.66,0.00625,-0.0128125
1.661,0.0065625,-0.0128125
1.662,0.0065625,-0.0125
1.663,0.0065625,-0.0125
1.664,0.006875,-0.0121875
1.665,0.006875,-0.0121875
1.666,0.006875,-0.0121875
1.667,0.006875,-0.011875
1.668,0.006875,-0.011875
1.669,0.006875,-0.011875
1.67,0.006875,-0.011875
1.671,0.006875,-0.0115625
1.672,0.006875,-0.0115625
1.673,0.006875,-0.0115625
1.674,0.006875,-0.0115625
1.675,0.006875,-0.0115625
1.676,0.006875,-0.0115625
1.677,0.0065625,-0.011875
1.678,0.0065625,-0.011875
1.679,0.0065625,-0.011875
1.68,0.00625,-0.011875
1.681,0.00625,-0.011875
1.682,0.0059375,-0.011875
1.683,0.0059375,-0.011875
1.684,0.005625,-0.011875
1.685,0.005625,-0.011875
1.686,0.005625,-0.0121875
1.687,0.0053125,-0.0121875
1.688,0.0053125,-0.0121875
1.689,0.005,-0.0121875
1.69,0.005,-0.0121875
1.691,0.0046875,-0.0121875
1.692,0.0046875,-0.0121875
1.693,0.004375,-0.011875
1.694,0.004375,-0.011875
1.695,0.004375,-0.011875
1.696,0.0040625,-0.0115625
1.697,0.0040625,-0.0115625
1.698,0.00375,-0.01125
1.699,0.0034375,-0.01125
1.7,0.0034375,-0.0109375
1.701,0.003125,-0.010625
1.702,0.003125,-0.010625
1.703,0.003125,-0.0103125
1.704,0.0028125,-0.01
1.705,0.0028125,-0.01
1.706,0.0028125,-0.01
1.707,0.0025,-0.0096875
1.708,0.0025,-0.0096875
1.709,0.0021875,-0.0096875
1.71,0.0021875,-0.009375
1.711,0.0021875,-0.009375
1.712,0.001875,-0.009375
1.713,0.001875,-0.009375
1.714,0.001875,-0.009375
1.715,0.001875,-0.009375
1.716,0.0015625,-0.009375
1.717,0.0015625,-0.009375
1.718,0.0015625,-0.009375
1.719,0.0015625,-0.0096875
1.72,0.0015625,-0.0096875
1.721,0.0015625,-0.01
1.722,0.0015625,-0.01
1.723,0.00125,-0.01
1.724,0.00125,-0.0103125
1.725,0.00125,-0.010625
1.726,0.00125,-0.0109375
1.727,0.00125,-0.0109375
1.728,0.00125,-0.01125
1.729,0.00125,-0.0115625
1.73,0.00125,-0.0115625
1.731,0.00125,-0.011875
1.732,0.00125,-0.0121875
1.733,0.00125,-0.0121875
1.734,0.0009375,-0.0125
1.735,0.0009375,-0.0125
1.736,0.0009375,-0.0125
1.737,0.0009375,-0.0128125
1.738,0.0009375,-0.0128125
1.739,0.000625,-0.013125
1.74,0.000625,-0.013125
1.741,0.000625,-0.013125
1.742,0.0003125,-0.013125
1.743,0.0003125,-0.013125
1.744,0.0003125,-0.0134375
1.745,0,-0.0134375
1.746,0,-0.0134375
1.747,-0.0003125,-0.0134375
1.748,-0.000625,-0.0134375
1.749,-0.0009375,-0.0134375
1.75,-0.0009375,-0.0134375
1.751,-0.00125,-0.0134375
1.752,-0.0015625,-0.0134375
1.753,-0.0015625,-0.0134375
1.754,-0.0021875,-0.0134375
1.755,-0.0021875,-0.0134375
1.756,-0.0025,-0.01375
1.757,-0.0028125,-0.01375
1.758,-0.0028125,-0.01375
1.759,-0.003125,-0.01375
1.76,-0.0034375,-0.01375
1.761,-0.00375,-0.01375
1.762,-0.00375,-0.01375
1.763,-0.0040625,-0.01375
1.764,-0.004375,-0.01375
1.765,-0.004375,-0.0140625
1.766,-0.0046875,-0.0140625
1.767,-0.005,-0.0140625
1.768,-0.005,-0.014375
1.769,-0.005,-0.014375
1.77,-0.0053125,-0.014375
1.771,-0.0053125,-0.0146875
1.772,-0.0053125,-0.0146875
1.773,-0.005625,-0.0146875
1.774,-0.005625,-0.015
1.775,-0.005625,-0.015
1.776,-0.005625,-0.015
1.777,-0.005625,-0.0153125
1.778,-0.005625,-0.0153125
1.779,-0.005625,-0.0153125
1.78,-0.005625,-0.015625
1.781,-0.005625,-0.015625
1.782,-0.005625,-0.0159375
1.783,-0.005625,-0.0159375
1.784,-0.005625,-0.0159375
1.785,-0.005625,-0.01625
1.786,-0.0053125,-0.01625
1.787,-0.0053125,-0.01625
1.788,-0.0053125,-0.0165625
1.789,-0.0053125,-0.0165625
1.79,-0.0053125,-0.0165625
1.791,-0.0053125,-0.016875
1.792,-0.0053125,-0.016875
1.793,-0.0053125,-0.016875
1.794,-0.005,-0.016875
1.795,-0.005,-0.016875
1.796,-0.005,-0.0165625
1.797,-0.005,-0.0165625
1.798,-0.005,-0.0165625
1.799,-0.005,-0.0165625
1.8,-0.005,-0.0165625
1.801,-0.005,-0.01625
1.802,-0.005,-0.01625
1.803,-0.005,-0.0159375
1.804,-0.005,-0.0159375
1.805,-0.005,-0.0159375
1.806,-0.005,-0.015625
1.807,-0.005,-0.015625
1.808,-0.005,-0.015625
1.809,-0.005,-0.0153125
1.81,-0.005,-0.0153125
1.811,-0.005,-0.015
1.812,-0.005,-0.0146875
1.813,-0.0053125,-0.014375
1.814,-0.0053125,-0.014375
1.815,-0.0053125,-0.0140625
1.816,-0.0053125,-0.01375
1.817,-0.005625,-0.0134375
1.818,-0.005625,-0.013125
1.819,-0.005625,-0.0128125
1.82,-0.0059375,-0.0125
1.821,-0.0059375,-0.0121875
1.822,-0.00625,-0.011875
1.823,-0.00625,-0.0115625
1.824,-0.00625,-0.01125
1.825,-0.0065625,-0.0109375
1.826,-0.0065625,-0.010625
1.827,-0.0065625,-0.0103125
1.828,-0.006875,-0.01
1.829,-0.006875,-0.0096875
1.83,-0.006875,-0.0096875
1.831,-0.006875,-0.0090625
1.832,-0.006875,-0.0090625
1.833,-0.006875,-0.00875
1.834,-0.006875,-0.008125
1.835,-0.006875,-0.008125
1.836,-0.006875,-0.0078125
1.837,-0.006875,-0.0075
1.838,-0.0065625,-0.0071875
1.839,-0.0065625,-0.006875
1.84,-0.00625,-0.0065625
1.841,-0.00625,-0.0059375
1.842,-0.0059375,-0.0059375
1.843,-0.005625,-0.005625
1.844,-0.005625,-0.0053125
1.845,-0.0053125,-0.005
1.846,-0.0053125,-0.0046875
1.847,-0.0046875,-0.0046875
1.848,-0.0046875,-0.004375
1.849,-0.004375,-0.0040625
1.85,-0.0040625,-0.00375
1.851,-0.0040625,-0.00375
1.852,-0.0034375,-0.00375
1.853,-0.003125,-0.0034375
1.854,-0.003125,-0.0034375
1.855,-0.0025,-0.0034375
1.856,-0.0025,-0.003125
1.857,-0.001875,-0.003125
1.858,-0.001875,-0.003125
1.859,-0.00125,-0.0028125
1.86,-0.00125,-0.0028125
1.861,-0.000625,-0.0028125
1.862,-0.000625,-0.0028125
1.863,-0.0003125,-0.0028125
1.864,0.0003125,-0.0028125
1.865,0.0003125,-0.003125
1.866,0.000625,-0.003125
1.867,0.0009375,-0.003125
1.868,0.00125,-0.003125
1.869,0.00125,-0.0034375
1.87,0.0015625,-0.0034375
1.871,0.001875,-0.0034375
1.872,0.001875,-0.00375
1.873,0.0021875,-0.00375
1.874,0.0025,-0.00375
1.875,0.0025,-0.0040625
1.876,0.0028125,-0.0040625
1.877,0.0028125,-0.004375
1.878,0.003125,-0.004375
1.879,0.003125,-0.004375
1.88,0.003125,-0.0046875
1.881,0.0034375,-0.0046875
1.882,0.0034375,-0.0046875
1.883,0.0034375,-0.0046875
1.884,0.00375,-0.0046875
1.885,0.00375,-0.0046875
1.886,0.00375,-0.0046875
1.887,0.00375,-0.0046875
1.888,0.00375,-0.0046875
1.889,0.00375,-0.0046875
1.89,0.00375,-0.0046875
1.891,0.00375,-0.004375
1.892,0.00375,-0.004375
1.893,0.00375,-0.004375
1.894,0.00375,-0.0040625
1.895,0.00375,-0.0040625
1.896,0.00375,-0.00375
1.897,0.0034375,-0.00375
1.898,0.0034375,-0.0034375
1.899,0.0034375,-0.003125
1.9,0.003125,-0.003125
1.901,0.003125,-0.0028125
1.902,0.0028125,-0.0028125
1.903,0.0028125,-0.0025
1.904,0.0028125,-0.0021875
1.905,0.0025,-0.0021875
1.906,0.0025,-0.001875
1.907,0.0021875,-0.001875
1.908,0.0021875,-0.001875
1.909,0.0021875,-0.0015625
1.91,0.001875,-0.0015625
1.911,0.001875,-0.0015625
1.912,0.0015625,-0.0015625
1.913,0.0015625,-0.0015625
1.914,0.00125,-0.0015625
1.915,0.00125,-0.0015625
1.916,0.00125,-0.0015625
1.917,0.0009375,-0.0015625
1.918,0.0009375,-0.0015625
1.919,0.0009375,-0.0015625
1.92,0.000625,-0.0015625
1.921,0.000625,-0.0015625
1.922,0.000625,-0.0015625
1.923,0.000625,-0.001875
1.924,0.000625,-0.001875
1.925,0.000625,-0.001875
1.926,0.000625,-0.0021875
1.927,0.000625,-0.0021875
1.928,0.000625,-0.0021875
1.929,0.0009375,-0.0025
1.93,0.0009375,-0.0025
1.931,0.0009375,-0.0028125
1.932,0.00125,-0.003125
1.933,0.00125,-0.0034375
1.934,0.0015625,-0.0034375
1.935,0.0015625,-0.0034375
1.936,0.001875,-0.00375
1.937,0.0021875,-0.0040625
1.938,0.0025,-0.0040625
1.939,0.0025,-0.004375
1.94,0.0028125,-0.0046875
1.941,0.003125,-0.0046875
1.942,0.003125,-0.005
1.943,0.00375,-0.005
1.944,0.00375,-0.0053125
1.945,0.004375,-0.0053125
1.946,0.004375,-0.005625
1.947,0.0046875,-0.005625
1.948,0.005,-0.005625
1.949,0.0053125,-0.0059375
1.95,0.005625,-0.0059375
1.951,0.005625,-0.00625
1.952,0.00625,-0.00625
1.953,0.00625,-0.00625
1.954,0.0065625,-0.00625
1.955,0.0065625,-0.00625
1.956,0.006875,-0.00625
1.957,0.0071875,-0.00625
1.958,0.0071875,-0.00625
1.959,0.0075,-0.00625
1.96,0.0075,-0.00625
1.961,0.0075,-0.00625
1.962,0.0078125,-0.00625
1.963,0.0078125,-0.00625
1.964,0.0078125,-0.0059375
1.965,0.0078125,-0.0059375
1.966,0.0078125,-0.005625
1.967,0.0078125,-0.005625
1.968,0.0078125,-0.005625
1.969,0.0078125,-0.0053125
1.97,0.0075,-0.0053125
1.971,0.0075,-0.005
1.972,0.0075,-0.005
1.973,0.0071875,-0.0046875
1.974,0.0071875,-0.004375
1.975,0.006875,-0.004375
1.976,0.0065625,-0.0040625
1.977,0.0065625,-0.0040625
1.978,0.0059375,-0.00375
1.979,0.005625,-0.00375
1.98,0.005625,-0.00375
1.981,0.0053125,-0.0034375
1.982,0.005,-0.0034375
1.983,0.0046875,-0.0034375
1.984,0.0040625,-0.003125
1.985,0.0040625,-0.003125
1.986,0.00375,-0.0034375
1.987,0.003125,-0.0034375
1.988,0.0028125,-0.0034375
1.989,0.0025,-0.0034375
1.99,0.0021875,-0.0034375
1.991,0.001875,-0.00375
1.992,0.0015625,-0.00375
1.993,0.0009375,-0.00375
1.994,0.000625,-0.0040625
1.995,0.0003125,-0.0040625
1.996,0,-0.0040625
1.997,-0.0003125,-0.004375
1.998,-0.000625,-0.004375
1.999,-0.0009375,-0.0046875
2,-0.00125,-0.0046875
2.001,-0.0015625,-0.005
2.002,-0.001875,-0.0053125
2.003,-0.001875,-0.005625
2.004,-0.0021875,-0.005625
2.005,-0.0025,-0.0059375
2.006,-0.0028125,-0.00625
2.007,-0.0028125,-0.00625
2.008,-0.003125,-0.006875
2.009,-0.003125,-0.006875
2.01,-0.0034375,-0.0071875
2.011,-0.0034375,-0.0075
2.012,-0.0034375,-0.0075
2.013,-0.0034375,-0.008125
2.014,-0.00375,-0.008125
2.015,-0.00375,-0.0084375
2.016,-0.00375,-0.00875
2.017,-0.0034375,-0.00875
2.018,-0.0034375,-0.0090625
2.019,-0.0034375,-0.009375
2.02,-0.0034375,-0.0096875
2.021,-0.0034375,-0.0096875
2.022,-0.0034375,-0.01
2.023,-0.003125,-0.0103125
2.024,-0.003125,-0.0103125
2.025,-0.003125,-0.010625
2.026,-0.0028125,-0.010625
2.027,-0.0028125,-0.0109375
2.028,-0.0025,-0.01125
2.029,-0.0025,-0.01125
2.03,-0.0025,-0.0115625
2.031,-0.0021875,-0.0115625
2.032,-0.0021875,-0.0115625
2.033,-0.0021875,-0.011875
2.034,-0.001875,-0.011875
2.035,-0.001875,-0.011875
2.036,-0.0015625,-0.011875
2.037,-0.0015625,-0.0121875
2.038,-0.0015625,-0.0121875
2.039,-0.0015625,-0.0121875
2.04,-0.0015625,-0.0121875
2.041,-0.0015625,-0.0121875
2.042,-0.0015625,-0.0121875
2.043,-0.001875,-0.0121875
2.044,-0.001875,-0.0121875
2.045,-0.001875,-0.011875
2.046,-0.0021875,-0.011875
2.047,-0.0021875,-0.011875
2.048,-0.0021875,-0.011875
2.049,-0.0025,-0.011875
2.05,-0.0025,-0.011875
2.051,-0.003125,-0.011875
2.052,-0.003125,-0.011875
2.053,-0.0034375,-0.011875
2.054,-0.0034375,-0.011875
2.055,-0.00375,-0.0115625
2.056,-0.004375,-0.0115625
2.057,-0.004375,-0.0115625
2.058,-0.0046875,-0.0115625
2.059,-0.005,-0.0115625
2.06,-0.0053125,-0.0115625
2.061,-0.005625,-0.0115625
2.062,-0.0059375,-0.0115625
2.063,-0.00625,-0.0115625
2.064,-0.00625,-0.0115625
2.065,-0.0065625,-0.0115625
2.066,-0.006875,-0.0115625
2.067,-0.0071875,-0.0115625
2.068,-0.0075,-0.0115625
2.069,-0.0075,-0.011875
2.07,-0.0075,-0.011875
2.071,-0.0078125,-0.011875
2.072,-0.0078125,-0.0121875
2.073,-0.0078125,-0.0121875
2.074,-0.008125,-0.0121875
2.075,-0.008125,-0.0125
2.076,-0.008125,-0.0125
2.077,-0.008125,-0.0128125
2.078,-0.0078125,-0.0128125
2.079,-0.0078125,-0.013125
2.08,-0.0078125,-0.0134375
2.081,-0.0078125,-0.0134375
2.082,-0.0078125,-0.0140625
2.083,-0.0075,-0.0140625
2.084,-0.0075,-0.0146875
2.085,-0.0075,-0.0146875
2.086,-0.0071875,-0.0153125
2.087,-0.0071875,-0.015625
2.088,-0.0071875,-0.0159375
2.089,-0.006875,-0.0165625
2.09,-0.006875,-0.016875
2.091,-0.006875,-0.0171875
2.092,-0.0065625,-0.0175
2.093,-0.0065625,-0.018125
2.094,-0.0065625,-0.0184375
2.095,-0.0065625,-0.01875
2.096,-0.0065625,-0.0190625
2.097,-0.0065625,-0.019375
2.098,-0.0065625,-0.02
2.099,-0.0065625,-0.02
2.1,-0.0065625,-0.0203125
2.101,-0.0065625,-0.0209375
2.102,-0.0065625,-0.0209375
2.103,-0.0065625,-0.0215625
2.104,-0.0065625,-0.021875
2.105,-0.0065625,-0.0221875
2.106,-0.0065625,-0.0225
2.107,-0.006875,-0.0225
2.108,-0.006875,-0.0228125
2.109,-0.0071875,-0.023125
2.11,-0.0071875,-0.0234375
2.111,-0.0071875,-0.02375
2.112,-0.0075,-0.02375
2.113,-0.0075,-0.02375
2.114,-0.0078125,-0.0240625
2.115,-0.008125,-0.0240625
2.116,-0.008125,-0.0240625
2.117,-0.008125,-0.0240625
2.118,-0.0084375,-0.0240625
2.119,-0.00875,-0.0240625
2.12,-0.0090625,-0.0240625
2.121,-0.0090625,-0.02375
2.122,-0.009375,-0.02375
2.123,-0.009375,-0.02375
2.124,-0.0096875,-0.02375
2.125,-0.01,-0.02375
2.126,-0.01,-0.02375
2.127,-0.010625,-0.02375
2.128,-0.010625,-0.02375
2.129,-0.0109375,-0.02375
2.13,-0.01125,-0.02375
2.131,-0.01125,-0.02375
2.132,-0.0115625,-0.02375
2.133,-0.011875,-0.02375
2.134,-0.011875,-0.0234375
2.135,-0.0121875,-0.0234375
2.136,-0.0125,-0.0234375
2.137,-0.0128125,-0.0234375
2.138,-0.0128125,-0.0234375
2.139,-0.0128125,-0.0234375
2.14,-0.013125,-0.023125
2.141,-0.0134375,-0.023125
2.142,-0.0134375,-0.023125
2.143,-0.01375,-0.023125
2.144,-0.01375,-0.023125
2.145,-0.0140625,-0.023125
2.146,-0.0140625,-0.0234375
2.147,-0.0140625,-0.0234375
2.148,-0.014375,-0.0234375
2.149,-0.014375,-0.0234375
2.15,-0.014375,-0.0234375
2.151,-0.014375,-0.0234375
2.152,-0.014375,-0.0234375
2.153,-0.014375,-0.0234375
2.154,-0.014375,-0.0234375
2.155,-0.014375,-0.0234375
2.156,-0.014375,-0.02375
2.157,-0.014375,-0.02375
2.158,-0.014375,-0.02375
2.159,-0.0140625,-0.02375
2.16,-0.0140625,-0.02375
2.161,-0.0140625,-0.02375
2.162,-0.0140625,-0.02375
2.163,-0.01375,-0.02375
2.164,-0.01375,-0.02375
2.165,-0.01375,-0.02375
2.166,-0.0134375,-0.02375
2.167,-0.0134375,-0.0240625
2.168,-0.0134375,-0.0240625
2.169,-0.013125,-0.0240625
2.17,-0.013125,-0.024375
2.171,-0.013125,-0.024375
2.172,-0.013125,-0.024375
2.173,-0.013125,-0.0246875
2.174,-0.013125,-0.0246875
2.175,-0.013125,-0.0246875
2.176,-0.013125,-0.025
2.177,-0.013125,-0.025
2.178,-0.013125,-0.0253125
2.179,-0.013125,-0.025625
2.18,-0.013125,-0.025625
2.181,-0.0134375,-0.0259375
2.182,-0.0134375,-0.0259375
2.183,-0.0134375,-0.0265625
2.184,-0.01375,-0.0265625
2.185,-0.01375,-0.0271875
2.186,-0.0140625,-0.0271875
2.187,-0.0140625,-0.0278125
2.188,-0.014375,-0.028125
2.189,-0.0146875,-0.0284375
2.19,-0.015,-0.02875
2.191,-0.015,-0.029375
2.192,-0.015,-0.029375
2.193,-0.0153125,-0.03
2.194,-0.015625,-0.0303125
2.195,-0.015625,-0.030625
2.196,-0.0159375,-0.0309375
2.197,-0.01625,-0.03125
2.198,-0.01625,-0.031875
2.199,-0.01625,-0.031875
2.2,-0.0165625,-0.0325
2.201,-0.016875,-0.0325
2.202,-0.016875,-0.0328125
2.203,-0.016875,-0.0334375
2.204,-0.0171875,-0.0334375
2.205,-0.0171875,-0.03375
2.206,-0.0175,-0.0340625
2.207,-0.0175,-0.034375
2.208,-0.0175,-0.034375
2.209,-0.0175,-0.034375
2.21,-0.0175,-0.0346875
2.211,-0.0175,-0.0346875
2.212,-0.0178125,-0.035
2.213,-0.0178125,-0.035
2.214,-0.0178125,-0.035
2.215,-0.0178125,-0.035
2.216,-0.0175,-0.0346875
2.217,-0.0175,-0.0346875
2.218,-0.0175,-0.0346875
2.219,-0.0175,-0.0346875
2.22,-0.0175,-0.0346875
2.221,-0.0175,-0.0346875
2.222,-0.0175,-0.0346875
2.223,-0.0175,-0.0346875
2.224,-0.0175,-0.034375
2.225,-0.0175,-0.034375
2.226,-0.0175,-0.034375
2.227,-0.0175,-0.034375
2.228,-0.0175,-0.034375
2.229,-0.0175,-0.034375
2.23,-0.0175,-0.0340625
2.231,-0.0178125,-0.0340625
2.232,-0.0178125,-0.03375
2.233,-0.0178125,-0.03375
2.234,-0.0178125,-0.03375
2.235,-0.0178125,-0.0334375
2.236,-0.0178125,-0.0334375
2.237,-0.0178125,-0.033125
2.238,-0.0178125,-0.0328125
2.239,-0.0178125,-0.0328125
2.24,-0.0178125,-0.0328125
2.241,-0.0178125,-0.0325
2.242,-0.018125,-0.0321875
2.243,-0.018125,-0.0321875
2.244,-0.018125,-0.031875
2.245,-0.0184375,-0.0315625
2.246,-0.0184375,-0.0315625
2.247,-0.0184375,-0.0315625
2.248,-0.01875,-0.03125
2.249,-0.01875,-0.0309375
2.25,-0.01875,-0.030625
2.251,-0.0190625,-0.030625
2.252,-0.0190625,-0.03
2.253,-0.019375,-0.0296875
2.254,-0.019375,-0.0296875
2.255,-0.019375,-0.0290625
2.256,-0.0196875,-0.0290625
2.257,-0.0196875,-0.0284375
2.258,-0.02,-0.0284375
2.259,-0.02,-0.028125
2.26,-0.02,-0.0278125
2.261,-0.0203125,-0.0275
2.262,-0.0203125,-0.0275
2.263,-0.0203125,-0.0271875
2.264,-0.0203125,-0.026875
2.265,-0.020625,-0.0265625
2.266,-0.020625,-0.0265625
2.267,-0.020625,-0.0265625
2.268,-0.020625,-0.02625
2.269,-0.020625,-0.02625
2.27,-0.0203125,-0.02625
2.271,-0.0203125,-0.0259375
2.272,-0.0203125,-0.0259375
2.273,-0.0203125,-0.025625
2.274,-0.02,-0.025625
2.275,-0.02,-0.025625
2.276,-0.02,-0.0253125
2.277,-0.0196875,-0.0253125
2.278,-0.0196875,-0.0253125
2.279,-0.019375,-0.0253125
2.28,-0.019375,-0.025
2.281,-0.0190625,-0.025
2.282,-0.01875,-0.025
2.283,-0.01875,-0.025
2.284,-0.0184375,-0.025
2.285,-0.018125,-0.025
2.286,-0.018125,-0.025
2.287,-0.0175,-0.025
2.288,-0.0175,-0.025
2.289,-0.0171875,-0.0253125
2.29,-0.016875,-0.0253125
2.291,-0.016875,-0.0253125
2.292,-0.0165625,-0.0253125
2.293,-0.01625,-0.0253125
2.294,-0.0159375,-0.0253125
2.295,-0.0159375,-0.025
2.296,-0.015625,-0.025
2.297,-0.0153125,-0.025
2.298,-0.0153125,-0.025
2.299,-0.015,-0.025
2.3,-0.015,-0.025
2.301,-0.0146875,-0.025
2.302,-0.0146875,-0.0246875
2.303,-0.014375,-0.0246875
2.304,-0.014375,-0.0246875
2.305,-0.014375,-0.0246875
2.306,-0.0140625,-0.0246875
2.307,-0.0140625,-0.0246875
2.308,-0.0140625,-0.0246875
2.309,-0.01375,-0.0246875
2.31,-0.01375,-0.0246875
2.311,-0.0134375,-0.0246875
2.312,-0.0134375,-0.0246875
2.313,-0.0134375,-0.0246875
2.314,-0.0134375,-0.0246875
2.315,-0.0134375,-0.0246875
2.316,-0.013125,-0.0246875
2.317,-0.013125,-0.0246875
2.318,-0.013125,-0.025
2.319,-0.013125,-0.025
2.32,-0.013125,-0.025
2.321,-0.013125,-0.025
2.322,-0.013125,-0.025
2.323,-0.013125,-0.025
2.324,-0.013125,-0.0253125
2.325,-0.013125,-0.0253125
2.326,-0.013125,-0.0253125
2.327,-0.013125,-0.0253125
2.328,-0.013125,-0.0253125
2.329,-0.013125,-0.025625
2.33,-0.0134375,-0.025625
2.331,-0.0134375,-0.025625
2.332,-0.0134375,-0.025625
2.333,-0.01375,-0.025625
2.334,-0.01375,-0.025625
2.335,-0.0140625,-0.025625
2.336,-0.0140625,-0.025625
2.337,-0.014375,-0.0259375
2.338,-0.014375,-0.0259375
2.339,-0.0146875,-0.0259375
2.34,-0.015,-0.0259375
2.341,-0.015,-0.02625
2.342,-0.0153125,-0.02625
2.343,-0.015625,-0.02625
2.344,-0.015625,-0.0265625
2.345,-0.015625,-0.0265625
2.346,-0.0159375,-0.026875
2.347,-0.01625,-0.026875
2.348,-0.01625,-0.0271875
2.349,-0.0165625,-0.0275
2.35,-0.0165625,-0.0275
2.351,-0.0165625,-0.0275
2.352,-0.016875,-0.0278125
2.353,-0.016875,-0.028125
2.354,-0.0171875,-0.028125
2.355,-0.0171875,-0.02875
2.356,-0.0171875,-0.02875
2.357,-0.0171875,-0.0290625
2.358,-0.0171875,-0.029375
2.359,-0.0175,-0.0296875
2.36,-0.0175,-0.03
2.361,-0.0175,-0.0303125
2.362,-0.0175,-0.030625
2.363,-0.0175,-0.0309375
2.364,-0.0175,-0.03125
2.365,-0.0178125,-0.0315625
2.366,-0.0178125,-0.0321875
2.367,-0.0178125,-0.0321875
2.368,-0.0178125,-0.0328125
2.369,-0.0178125,-0.033125
2.37,-0.018125,-0.033125
2.371,-0.018125,-0.03375
2.372,-0.018125,-0.03375
2.373,-0.0184375,-0.0340625
2.374,-0.0184375,-0.034375
2.375,-0.0184375,-0.034375
2.376,-0.01875,-0.0346875
2.377,-0.01875,-0.0346875
2.378,-0.01875,-0.035
2.379,-0.0190625,-0.035
2.38,-0.0190625,-0.035
2.381,-0.019375,-0.035
2.382,-0.019375,-0.0353125
2.383,-0.0196875,-0.0353125
2.384,-0.0196875,-0.0353125
2.385,-0.02,-0.0353125
2.386,-0.02,-0.0353125
2.387,-0.0203125,-0.0353125
2.388,-0.020625,-0.0353125
2.389,-0.020625,-0.0353125
2.39,-0.0209375,-0.0353125
2.391,-0.0209375,-0.035
2.392,-0.02125,-0.035
2.393,-0.02125,-0.035
2.394,-0.0215625,-0.035
2.395,-0.0215625,-0.035
2.396,-0.0215625,-0.0346875
2.397,-0.021875,-0.0346875
2.398,-0.021875,-0.034375
2.399,-0.021875,-0.034375
2.4,-0.0221875,-0.034375
2.401,-0.0221875,-0.0340625
2.402,-0.0225,-0.0340625
2.403,-0.0225,-0.0340625
2.404,-0.0225,-0.03375
2.405,-0.0225,-0.03375
2.406,-0.0225,-0.0334375
2.407,-0.0228125,-0.0334375
2.408,-0.0228125,-0.033125
2.409,-0.0228125,-0.033125
2.41,-0.0228125,-0.0328125
2.411,-0.0228125,-0.0328125
2.412,-0.0228125,-0.0325
2.413,-0.0228125,-0.0325
2.414,-0.0228125,-0.0321875
2.415,-0.0228125,-0.031875
2.416,-0.0228125,-0.031875
2.417,-0.0228125,-0.0315625
2.418,-0.0228125,-0.0315625
2.419,-0.0228125,-0.03125
2.42,-0.0228125,-0.03125
2.421,-0.0228125,-0.0309375
2.422,-0.0228125,-0.0309375
2.423,-0.0225,-0.030625
2.424,-0.0225,-0.030625
2.425,-0.0225,-0.0303125
2.426,-0.0221875,-0.03
2.427,-0.0221875,-0.03
2.428,-0.0221875,-0.0296875
2.429,-0.021875,-0.0296875
2.43,-0.021875,-0.0290625
2.431,-0.021875,-0.0290625
2.432,-0.0215625,-0.02875
2.433,-0.0215625,-0.0284375
2.434,-0.0215625,-0.0284375
2.435,-0.0215625,-0.0278125
2.436,-0.02125,-0.0275
2.437,-0.02125,-0.0271875
2.438,-0.02125,-0.0271875
2.439,-0.02125,-0.026875
2.44,-0.02125,-0.0265625
2.441,-0.02125,-0.02625
2.442,-0.02125,-0.02625
2.443,-0.02125,-0.025625
2.444,-0.02125,-0.025625
2.445,-0.02125,-0.0253125
2.446,-0.02125,-0.025
2.447,-0.02125,-0.0246875
2.448,-0.02125,-0.024375
2.449,-0.02125,-0.0240625
2.45,-0.0215625,-0.02375
2.451,-0.0215625,-0.0234375
2.452,-0.0215625,-0.0228125
2.453,-0.021875,-0.0228125
2.454,-0.021875,-0.0221875
2.455,-0.0221875,-0.021875
2.456,-0.0225,-0.0215625
2.457,-0.0225,-0.02125
2.458,-0.0228125,-0.0209375
2.459,-0.0228125,-0.020625
2.46,-0.0228125,-0.0203125
2.461,-0.023125,-0.0203125
2.462,-0.023125,-0.0196875
2.463,-0.0234375,-0.0196875
2.464,-0.0234375,-0.019375
2.465,-0.0234375,-0.0190625
2.466,-0.02375,-0.0190625
2.467,-0.02375,-0.01875
2.468,-0.0240625,-0.01875
2.469,-0.0240625,-0.0184375
2.47,-0.0240625,-0.018125
2.471,-0.024375,-0.018125
2.472,-0.024375,-0.0175
2.473,-0.0246875,-0.0175
2.474,-0.0246875,-0.0171875
2.475,-0.0246875,-0.016875
2.476,-0.025,-0.016875
2.477,-0.025,-0.0165625
2.478,-0.025,-0.0165625
2.479,-0.0253125,-0.01625
2.48,-0.0253125,-0.0159375
2.481,-0.025625,-0.0159375
2.482,-0.025625,-0.015625
2.483,-0.025625,-0.015625
2.484,-0.0259375,-0.015625
2.485,-0.0259375,-0.0153125
2.486,-0.0259375,-0.0153125
2.487,-0.02625,-0.0153125
2.488,-0.02625,-0.0153125
2.489,-0.0265625,-0.015
2.49,-0.0265625,-0.015
2.491,-0.0265625,-0.015
2.492,-0.026875,-0.015
2.493,-0.026875,-0.015
2.494,-0.0271875,-0.0146875
2.495,-0.0271875,-0.0146875
2.496,-0.0271875,-0.0146875
2.497,-0.0275,-0.0146875
2.498,-0.0275,-0.014375
2.499,-0.0278125,-0.014375
2.5,-0.0278125,-0.014375
2.501,-0.0278125,-0.0140625
2.502,-0.028125,-0.0140625
2.503,-0.028125,-0.0140625
2.504,-0.028125,-0.0140625
2.505,-0.0284375,-0.0140625
2.506,-0.0284375,-0.01375
2.507,-0.0284375,-0.01375
2.508,-0.02875,-0.0134375
2.509,-0.02875,-0.0134375
2.51,-0.02875,-0.0134375
2.511,-0.0290625,-0.013125
2.512,-0.0290625,-0.013125
2.513,-0.0290625,-0.0128125
2.514,-0.0290625,-0.0125
2.515,-0.0290625,-0.0125
2.516,-0.029375,-0.0121875
2.517,-0.029375,-0.0121875
2.518,-0.029375,-0.0115625
2.519,-0.029375,-0.0115625
2.52,-0.029375,-0.01125
2.521,-0.029375,-0.0109375
2.522,-0.029375,-0.0109375
2.523,-0.0296875,-0.010625
2.524,-0.0296875,-0.010625
2.525,-0.0296875,-0.0103125
2.526,-0.0296875,-0.01
2.527,-0.0296875,-0.01
2.528,-0.03,-0.0096875
2.529,-0.03,-0.0096875
2.53,-0.03,-0.009375
2.531,-0.0303125,-0.009375
2.532,-0.0303125,-0.0090625
2.533,-0.030625,-0.0090625
2.534,-0.030625,-0.0090625
2.535,-0.030625,-0.00875
2.536,-0.0309375,-0.00875
2.537,-0.0309375,-0.00875
2.538,-0.03125,-0.0084375
2.539,-0.0315625,-0.0084375
2.54,-0.0315625,-0.0084375
2.541,-0.031875,-0.0084375
2.542,-0.031875,-0.0084375
2.543,-0.0321875,-0.0084375
2.544,-0.0325,-0.0084375
2.545,-0.0325,-0.0084375
2.546,-0.0328125,-0.0084375
2.547,-0.033125,-0.0084375
2.548,-0.033125,-0.0084375
2.549,-0.03375,-0.00875
2.55,-0.03375,-0.00875
2.551,-0.0340625,-0.00875
2.552,-0.034375,-0.00875
2.553,-0.034375,-0.00875
2.554,-0.0346875,-0.00875
2.555,-0.0346875,-0.00875
2.556,-0.035,-0.0090625
2.557,-0.035,-0.0090625
2.558,-0.035,-0.0090625
2.559,-0.0353125,-0.009375
2.56,-0.0353125,-0.009375
2.561,-0.0353125,-0.01
2.562,-0.0353125,-0.01
2.563,-0.0353125,-0.0103125
2.564,-0.0353125,-0.010625
2.565,-0.0353125,-0.010625
2.566,-0.0353125,-0.01125
2.567,-0.0353125,-0.01125
2.568,-0.0353125,-0.011875
2.569,-0.0353125,-0.0121875
2.57,-0.035,-0.0121875
2.571,-0.035,-0.0125
2.572,-0.035,-0.0128125
2.573,-0.035,-0.013125
2.574,-0.0346875,-0.0134375
2.575,-0.0346875,-0.01375
2.576,-0.0346875,-0.0140625
2.577,-0.0346875,-0.014375
2.578,-0.034375,-0.0146875
2.579,-0.034375,-0.0153125
2.58,-0.034375,-0.0153125
2.581,-0.0340625,-0.0159375
2.582,-0.0340625,-0.01625
2.583,-0.0340625,-0.0165625
2.584,-0.0340625,-0.016875
2.585,-0.0340625,-0.0175
2.586,-0.03375,-0.0175
2.587,-0.03375,-0.018125
2.588,-0.03375,-0.018125
2.589,-0.03375,-0.0184375
2.59,-0.03375,-0.01875
2.591,-0.03375,-0.01875
2.592,-0.03375,-0.01875
2.593,-0.03375,-0.0190625
2.594,-0.03375,-0.0190625
2.595,-0.03375,-0.0190625
2.596,-0.03375,-0.01875
2.597,-0.03375,-0.01875
2.598,-0.03375,-0.01875
2.599,-0.03375,-0.0184375
2.6,-0.03375,-0.0184375
2.601,-0.03375,-0.0184375
2.602,-0.03375,-0.018125
2.603,-0.03375,-0.0178125
2.604,-0.03375,-0.0178125
2.605,-0.03375,-0.0175
2.606,-0.03375,-0.0171875
2.607,-0.03375,-0.0165625
2.608,-0.03375,-0.0165625
2.609,-0.03375,-0.0159375
2.61,-0.03375,-0.015625
2.611,-0.03375,-0.015
2.612,-0.03375,-0.0146875
2.613,-0.03375,-0.014375
2.614,-0.03375,-0.01375
2.615,-0.03375,-0.0128125
2.616,-0.03375,-0.0125
2.617,-0.03375,-0.011875
2.618,-0.03375,-0.0115625
2.619,-0.03375,-0.010625
2.62,-0.0340625,-0.01
2.621,-0.0340625,-0.0096875
2.622,-0.0340625,-0.0090625
2.623,-0.0340625,-0.00875
2.624,-0.0340625,-0.0078125
2.625,-0.0340625,-0.0075
2.626,-0.0340625,-0.0071875
2.627,-0.0340625,-0.0065625
2.628,-0.0340625,-0.00625
2.629,-0.0340625,-0.0059375
2.63,-0.0340625,-0.0053125
2.631,-0.0340625,-0.005
2.632,-0.0340625,-0.0046875
2.633,-0.0340625,-0.004375
2.634,-0.0340625,-0.0040625
2.635,-0.0340625,-0.00375
2.636,-0.0340625,-0.0034375
2.637,-0.0340625,-0.0034375
2.638,-0.0340625,-0.003125
2.639,-0.0340625,-0.0028125
2.64,-0.0340625,-0.0025
2.641,-0.0340625,-0.0025
2.642,-0.0340625,-0.0025
2.643,-0.0340625,-0.0021875
2.644,-0.0340625,-0.0021875
2.645,-0.0340625,-0.0021875
2.646,-0.0340625,-0.001875
2.647,-0.0340625,-0.001875
2.648,-0.03375,-0.001875
2.649,-0.03375,-0.001875
2.65,-0.03375,-0.001875
2.651,-0.03375,-0.001875
2.652,-0.03375,-0.001875
2.653,-0.0334375,-0.001875
2.654,-0.0334375,-0.001875
2.655,-0.0334375,-0.001875
2.656,-0.0334375,-0.001875
2.657,-0.0334375,-0.001875
2.658,-0.0334375,-0.001875
2.659,-0.033125,-0.001875
2.66,-0.033125,-0.001875
2.661,-0.033125,-0.001875
2.662,-0.033125,-0.001875
2.663,-0.0328125,-0.001875
2.664,-0.0328125,-0.001875
2.665,-0.0328125,-0.001875
2.666,-0.0325,-0.0021875
2.667,-0.0325,-0.0021875
2.668,-0.0325,-0.0021875
2.669,-0.0321875,-0.0025
2.67,-0.0321875,-0.0025
2.671,-0.0321875,-0.0025
2.672,-0.031875,-0.0028125
2.673,-0.031875,-0.0028125
2.674,-0.031875,-0.003125
2.675,-0.0315625,-0.003125
2.676,-0.0315625,-0.003125
2.677,-0.03125,-0.0034375
2.678,-0.03125,-0.00375
2.679,-0.03125,-0.0040625
2.68,-0.0309375,-0.0040625
2.681,-0.0309375,-0.004375
2.682,-0.030625,-0.004375
2.683,-0.030625,-0.0046875
2.684,-0.030625,-0.005
2.685,-0.0303125,-0.0053125
2.686,-0.0303125,-0.0053125
2.687,-0.0303125,-0.005625
2.688,-0.03,-0.005625
2.689,-0.03,-0.0059375
2.69,-0.03,-0.00625
2.691,-0.03,-0.00625
2.692,-0.0296875,-0.0065625
2.693,-0.0296875,-0.0065625
2.694,-0.0296875,-0.006875
2.695,-0.0296875,-0.006875
2.696,-0.0296875,-0.006875
2.697,-0.0296875,-0.0071875
2.698,-0.0296875,-0.0071875
2.699,-0.0296875,-0.0071875
2.7,-0.0296875,-0.0071875
2.701,-0.0296875,-0.0071875
2.702,-0.0296875,-0.0075
2.703,-0.0296875,-0.0075
2.704,-0.0296875,-0.0075
2.705,-0.0296875,-0.0075
2.706,-0.0296875,-0.0075
2.707,-0.0296875,-0.0078125
2.708,-0.0296875,-0.0078125
2.709,-0.0296875,-0.0078125
2.71,-0.0296875,-0.008125
2.711,-0.0296875,-0.008125
2.712,-0.0296875,-0.008125
2.713,-0.0296875,-0.0084375
2.714,-0.0296875,-0.0084375
2.715,-0.0296875,-0.0084375
2.716,-0.029375,-0.00875
2.717,-0.029375,-0.00875
2.718,-0.029375,-0.00875
2.719,-0.029375,-0.0090625
2.72,-0.029375,-0.0090625
2.721,-0.029375,-0.009375
2.722,-0.029375,-0.0096875
2.723,-0.029375,-0.0096875
2.724,-0.029375,-0.01
2.725,-0.029375,-0.0103125
2.726,-0.029375,-0.0103125
2.727,-0.029375,-0.010625
2.728,-0.029375,-0.0109375
2.729,-0.029375,-0.0109375
2.73,-0.029375,-0.0115625
2.731,-0.029375,-0.0115625
2.732,-0.029375,-0.011875
2.733,-0.029375,-0.0121875
2.734,-0.029375,-0.0121875
2.735,-0.029375,-0.0128125
2.736,-0.029375,-0.013125
2.737,-0.0290625,-0.013125
2.738,-0.0290625,-0.0134375
2.739,-0.0290625,-0.01375
2.74,-0.0290625,-0.01375
2.741,-0.0290625,-0.0140625
2.742,-0.0290625,-0.014375
2.743,-0.0290625,-0.0146875
2.744,-0.0290625,-0.0146875
2.745,-0.0290625,-0.015
2.746,-0.0290625,-0.0153125
2.747,-0.0290625,-0.0153125
2.748,-0.0290625,-0.015625
2.749,-0.0290625,-0.015625
2.75,-0.0290625,-0.015625
2.751,-0.0290625,-0.0159375
2.752,-0.0290625,-0.0159375
2.753,-0.0290625,-0.01625
2.754,-0.0290625,-0.01625
2.755,-0.0290625,-0.01625
2.756,-0.0290625,-0.0165625
2.757,-0.0290625,-0.0165625
2.758,-0.0290625,-0.0165625
2.759,-0.0290625,-0.016875
2.76,-0.0290625,-0.016875
2.761,-0.0290625,-0.016875
2.762,-0.0290625,-0.0171875
2.763,-0.0290625,-0.0171875
2.764,-0.0290625,-0.0171875
2.765,-0.0290625,-0.0171875
2.766,-0.0290625,-0.0175
2.767,-0.0290625,-0.0175
2.768,-0.029375,-0.0171875
2.769,-0.029375,-0.0171875
2.77,-0.029375,-0.0171875
2.771,-0.029375,-0.0171875
2.772,-0.029375,-0.0171875
2.773,-0.029375,-0.0171875
2.774,-0.029375,-0.016875
2.775,-0.029375,-0.016875
2.776,-0.029375,-0.016875
2.777,-0.0296875,-0.0165625
2.778,-0.0296875,-0.0165625
2.779,-0.0296875,-0.01625
2.78,-0.03,-0.01625
2.781,-0.03,-0.01625
2.782,-0.03,-0.0159375
2.783,-0.0303125,-0.0159375
2.784,-0.0303125,-0.0159375
2.785,-0.0303125,-0.015625
2.786,-0.030625,-0.015625
2.787,-0.030625,-0.015625
2.788,-0.030625,-0.0153125
2.789,-0.0309375,-0.0153125
2.79,-0.0309375,-0.0153125
2.791,-0.0309375,-0.015
2.792,-0.03125,-0.015
2.793,-0.03125,-0.015
2.794,-0.0315625,-0.015
2.795,-0.0315625,-0.015
2.796,-0.0315625,-0.0146875
2.797,-0.031875,-0.0146875
2.798,-0.031875,-0.015
2.799,-0.031875,-0.015
2.8,-0.0321875,-0.015
2.801,-0.0321875,-0.015
2.802,-0.0325,-0.015
2.803,-0.0325,-0.0153125
2.804,-0.0325,-0.0153125
2.805,-0.0328125,-0.015625
2.806,-0.0328125,-0.0159375
2.807,-0.0328125,-0.0159375
2.808,-0.0328125,-0.0159375
2.809,-0.0328125,-0.01625
2.81,-0.033125,-0.0165625
2.811,-0.033125,-0.016875
2.812,-0.033125,-0.016875
2.813,-0.033125,-0.0171875
2.814,-0.033125,-0.0171875
2.815,-0.033125,-0.0175
2.816,-0.033125,-0.0175
2.817,-0.033125,-0.0175
2.818,-0.033125,-0.0178125
2.819,-0.033125,-0.0178125
2.82,-0.033125,-0.018125
2.821,-0.0328125,-0.018125
2.822,-0.0328125,-0.018125
2.823,-0.0328125,-0.018125
2.824,-0.0328125,-0.018125
2.825,-0.0328125,-0.018125
2.826,-0.0328125,-0.018125
2.827,-0.0328125,-0.018125
2.828,-0.0328125,-0.018125
2.829,-0.0328125,-0.018125
2.83,-0.0328125,-0.0178125
2.831,-0.0328125,-0.0178125
2.832,-0.0328125,-0.0178125
2.833,-0.0328125,-0.0175
2.834,-0.0328125,-0.0175
2.835,-0.0328125,-0.0171875
2.836,-0.0328125,-0.016875
2.837,-0.0328125,-0.016875
2.838,-0.0328125,-0.0165625
2.839,-0.0328125,-0.01625
2.84,-0.0328125,-0.01625
2.841,-0.0328125,-0.0159375
2.842,-0.0328125,-0.015625
2.843,-0.0328125,-0.015625
2.844,-0.0328125,-0.0153125
2.845,-0.0328125,-0.0153125
2.846,-0.0328125,-0.0153125
2.847,-0.0328125,-0.015
2.848,-0.0328125,-0.015
2.849,-0.0328125,-0.015
2.85,-0.0328125,-0.015
2.851,-0.0328125,-0.0146875
2.852,-0.0328125,-0.0146875
2.853,-0.0328125,-0.0146875
2.854,-0.0328125,-0.0146875
2.855,-0.0328125,-0.015
2.856,-0.0325,-0.015
2.857,-0.0325,-0.015
2.858,-0.0325,-0.015
2.859,-0.0325,-0.015
2.86,-0.0325,-0.0153125
2.861,-0.0325,-0.0153125
2.862,-0.0321875,-0.0153125
2.863,-0.0321875,-0.015625
2.864,-0.0321875,-0.015625
2.865,-0.0321875,-0.0159375
2.866,-0.0321875,-0.0159375
2.867,-0.031875,-0.01625
2.868,-0.031875,-0.01625
2.869,-0.031875,-0.0165625
2.87,-0.031875,-0.016875
2.871,-0.031875,-0.016875
2.872,-0.031875,-0.0171875
2.873,-0.031875,-0.0171875
2.874,-0.0315625,-0.0175
2.875,-0.0315625,-0.0175
2.876,-0.0315625,-0.0178125
2.877,-0.0315625,-0.0178125
2.878,-0.0315625,-0.018125
2.879,-0.0315625,-0.018125
2.88,-0.0315625,-0.018125
2.881,-0.0315625,-0.0184375
2.882,-0.0315625,-0.0184375
2.883,-0.0315625,-0.0184375
2.884,-0.0315625,-0.0184375
2.885,-0.0315625,-0.0184375
2.886,-0.03125,-0.0184375
2.887,-0.03125,-0.0184375
2.888,-0.03125,-0.0184375
2.889,-0.03125,-0.0184375
2.89,-0.03125,-0.0184375
2.891,-0.03125,-0.0184375
2.892,-0.03125,-0.0184375
2.893,-0.03125,-0.0184375
2.894,-0.03125,-0.0184375
2.895,-0.03125,-0.018125
2.896,-0.03125,-0.018125
2.897,-0.03125,-0.018125
2.898,-0.03125,-0.018125
2.899,-0.03125,-0.018125
2.9,-0.03125,-0.0178125
2.901,-0.0309375,-0.0178125
2.902,-0.0309375,-0.0178125
2.903,-0.0309375,-0.0178125
2.904,-0.030625,-0.0178125
2.905,-0.030625,-0.0175
2.906,-0.030625,-0.0175
2.907,-0.030625,-0.0175
2.908,-0.030625,-0.0175
2.909,-0.0303125,-0.0171875
2.91,-0.0303125,-0.0171875
2.911,-0.0303125,-0.0171875
2.912,-0.0303125,-0.016875
2.913,-0.0303125,-0.016875
2.914,-0.03,-0.0165625
2.915,-0.03,-0.0165625
2.916,-0.03,-0.0165625
2.917,-0.03,-0.01625
2.918,-0.0303125,-0.01625
2.919,-0.0303125,-0.0159375
2.92,-0.0303125,-0.015625
2.921,-0.0303125,-0.015625
2.922,-0.0303125,-0.015625
2.923,-0.0303125,-0.0153125
2.924,-0.0303125,-0.015
2.925,-0.0303125,-0.0146875
2.926,-0.030625,-0.0146875
2.927,-0.030625,-0.014375
2.928,-0.030625,-0.014375
2.929,-0.0309375,-0.0140625
2.93,-0.0309375,-0.01375
2.931,-0.0309375,-0.01375
2.932,-0.0309375,-0.0134375
2.933,-0.03125,-0.013125
2.934,-0.03125,-0.013125
2.935,-0.03125,-0.013125
2.936,-0.0315625,-0.0128125
2.937,-0.0315625,-0.0128125
2.938,-0.0315625,-0.0128125
2.939,-0.0315625,-0.0128125
2.94,-0.031875,-0.0128125
2.941,-0.031875,-0.0128125
2.942,-0.031875,-0.0128125
2.943,-0.031875,-0.0128125
2.944,-0.031875,-0.013125
2.945,-0.031875,-0.013125
2.946,-0.031875,-0.0134375
2.947,-0.031875,-0.0134375
2.948,-0.0315625,-0.01375
2.949,-0.0315625,-0.0140625
2.95,-0.0315625,-0.0140625
2.951,-0.0315625,-0.014375
2.952,-0.0315625,-0.0146875
2.953,-0.03125,-0.0146875
2.954,-0.03125,-0.015
2.955,-0.0309375,-0.015625
2.956,-0.0309375,-0.015625
2.957,-0.0309375,-0.01625
2.958,-0.030625,-0.0165625
2.959,-0.030625,-0.016875
2.96,-0.0303125,-0.0171875
2.961,-0.0303125,-0.0178125
2.962,-0.03,-0.018125
2.963,-0.03,-0.0184375
2.964,-0.0296875,-0.01875
2.965,-0.0296875,-0.0190625
2.966,-0.029375,-0.019375
2.967,-0.029375,-0.0196875
2.968,-0.0290625,-0.02
2.969,-0.0290625,-0.02
2.97,-0.0290625,-0.02
2.971,-0.02875,-0.0203125
2.972,-0.02875,-0.0203125
2.973,-0.0284375,-0.0203125
2.974,-0.0284375,-0.02
2.975,-0.0284375,-0.02
2.976,-0.0284375,-0.02
2.977,-0.0284375,-0.02
2.978,-0.028125,-0.0196875
2.979,-0.028125,-0.0196875
2.98,-0.028125,-0.019375
2.981,-0.028125,-0.019375
2.982,-0.028125,-0.019375
2.983,-0.028125,-0.0190625
2.984,-0.0278125,-0.0190625
2.985,-0.0278125,-0.01875
2.986,-0.0278125,-0.01875
2.987,-0.0278125,-0.0184375
2.988,-0.0278125,-0.018125
2.989,-0.0278125,-0.018125
2.99,-0.028125,-0.0178125
2.991,-0.028125,-0.0175
2.992,-0.028125,-0.0175
2.993,-0.028125,-0.016875
2.994,-0.028125,-0.016875
2.995,-0.028125,-0.0165625
2.996,-0.028125,-0.0159375
2.997,-0.028125,-0.0159375
2.998,-0.028125,-0.015625
2.999,-0.028125,-0.0153125
3,-0.028125,-0.015
3.001,-0.028125,-0.015
3.002,-0.0284375,-0.014375
3.003,-0.0284375,-0.014375
3.004,-0.0284375,-0.0140625
3.005,-0.0284375,-0.01375
3.006,-0.0284375,-0.01375
3.007,-0.0284375,-0.0134375
3.008,-0.0284375,-0.0134375
3.009,-0.02875,-0.013125
3.01,-0.02875,-0.0128125
3.011,-0.02875,-0.0125
3.012,-0.02875,-0.0125
3.013,-0.02875,-0.0121875
3.014,-0.02875,-0.0121875
3.015,-0.02875,-0.011875
3.016,-0.02875,-0.0115625
3.017,-0.0290625,-0.01125
3.018,-0.0290625,-0.01125
3.019,-0.0290625,-0.0109375
3.02,-0.0290625,-0.010625
3.021,-0.0290625,-0.010625
3.022,-0.0290625,-0.0103125
3.023,-0.02875,-0.0103125
3.024,-0.02875,-0.0103125
3.025,-0.02875,-0.01
3.026,-0.02875,-0.01
3.027,-0.02875,-0.0096875
3.028,-0.02875,-0.0096875
3.029,-0.02875,-0.0096875
3.03,-0.02875,-0.0096875
3.031,-0.02875,-0.009375
3.032,-0.02875,-0.009375
3.033,-0.02875,-0.009375
3.034,-0.02875,-0.009375
3.035,-0.0284375,-0.009375
3.036,-0.0284375,-0.009375
3.037,-0.0284375,-0.009375
3.038,-0.0284375,-0.009375
3.039,-0.0284375,-0.0090625
3.04,-0.028125,-0.0090625
3.041,-0.028125,-0.0090625
3.042,-0.028125,-0.0090625
3.043,-0.028125,-0.0090625
3.044,-0.028125,-0.0090625
3.045,-0.028125,-0.0090625
3.046,-0.0278125,-0.0090625
3.047,-0.0278125,-0.0090625
3.048,-0.0278125,-0.0090625
3.049,-0.0278125,-0.0090625
3.05,-0.0275,-0.0090625
3.051,-0.0275,-0.0090625
3.052,-0.0275,-0.0090625
3.053,-0.0271875,-0.0090625
3.054,-0.0271875,-0.0090625
3.055,-0.0271875,-0.0090625
3.056,-0.026875,-0.0090625
3.057,-0.026875,-0.0090625
3.058,-0.026875,-0.0090625
3.059,-0.026875,-0.0090625
3.06,-0.0265625,-0.0090625
3.061,-0.0265625,-0.0090625
3.062,-0.0265625,-0.0090625
3.063,-0.02625,-0.0090625
3.064,-0.02625,-0.0090625
3.065,-0.02625,-0.0090625
3.066,-0.0259375,-0.0090625
3.067,-0.0259375,-0.0090625
3.068,-0.0259375,-0.009375
3.069,-0.025625,-0.009375
3.07,-0.025625,-0.009375
3.071,-0.025625,-0.009375
3.072,-0.0253125,-0.009375
3.073,-0.0253125,-0.009375
3.074,-0.0253125,-0.009375
3.075,-0.025,-0.009375
3.076,-0.025,-0.009375
3.077,-0.025,-0.009375
3.078,-0.0246875,-0.009375
3.079,-0.0246875,-0.0096875
3.08,-0.0246875,-0.0096875
3.081,-0.024375,-0.0096875
3.082,-0.024375,-0.01
3.083,-0.024375,-0.01
3.084,-0.0240625,-0.0103125
3.085,-0.0240625,-0.0103125
3.086,-0.0240625,-0.0103125
3.087,-0.0240625,-0.010625
3.088,-0.02375,-0.010625
3.089,-0.02375,-0.010625
3.09,-0.02375,-0.0109375
3.091,-0.0234375,-0.0109375
3.092,-0.0234375,-0.01125
3.093,-0.0234375,-0.01125
3.094,-0.023125,-0.01125
3.095,-0.023125,-0.01125
3.096,-0.023125,-0.0115625
3.097,-0.023125,-0.0115625
3.098,-0.0228125,-0.0115625
3.099,-0.0228125,-0.0115625
3.1,-0.0228125,-0.011875
3.101,-0.0228125,-0.011875
3.102,-0.0228125,-0.011875
3.103,-0.0228125,-0.011875
3.104,-0.0225,-0.011875
3.105,-0.0225,-0.0121875
3.106,-0.0225,-0.0121875
3.107,-0.0225,-0.0121875
3.108,-0.0225,-0.0121875
3.109,-0.0225,-0.0121875
3.11,-0.0221875,-0.0121875
3.111,-0.0221875,-0.0121875
3.112,-0.0221875,-0.0121875
3.113,-0.0221875,-0.0121875
3.114,-0.0225,-0.0121875
3.115,-0.0225,-0.011875
3.116,-0.0225,-0.011875
3.117,-0.0225,-0.011875
3.118,-0.0225,-0.011875
3.119,-0.0225,-0.011875
3.12,-0.0225,-0.0115625
3.121,-0.0225,-0.0115625
3.122,-0.0225,-0.0115625
3.123,-0.0228125,-0.0115625
3.124,-0.0228125,-0.0115625
3.125,-0.0228125,-0.0115625
3.126,-0.0228125,-0.0115625
3.127,-0.0228125,-0.0115625
3.128,-0.0228125,-0.011875
3.129,-0.0228125,-0.011875
3.13,-0.0228125,-0.011875
3.131,-0.023125,-0.011875
3.132,-0.023125,-0.011875
3.133,-0.023125,-0.011875
3.134,-0.023125,-0.011875
3.135,-0.023125,-0.011875
3.136,-0.023125,-0.011875
3.137,-0.023125,-0.011875
3.138,-0.0234375,-0.011875
3.139,-0.0234375,-0.0115625
3.14,-0.0234375,-0.0115625
3.141,-0.0234375,-0.0115625
3.142,-0.0234375,-0.0115625
3.143,-0.02375,-0.0115625
3.144,-0.02375,-0.01125
3.145,-0.02375,-0.01125
3.146,-0.02375,-0.0109375
3.147,-0.02375,-0.0109375
3.148,-0.0240625,-0.0109375
3.149,-0.0240625,-0.010625
3.15,-0.0240625,-0.010625
3.151,-0.0240625,-0.0103125
3.152,-0.0240625,-0.01
3.153,-0.024375,-0.01
3.154,-0.024375,-0.0096875
3.155,-0.024375,-0.0090625
3.156,-0.024375,-0.0090625
3.157,-0.024375,-0.00875
3.158,-0.0246875,-0.0084375
3.159,-0.0246875,-0.008125
3.16,-0.0246875,-0.0078125
3.161,-0.0246875,-0.0075
3.162,-0.0246875,-0.0071875
3.163,-0.025,-0.006875
3.164,-0.025,-0.0065625
3.165,-0.025,-0.0065625
3.166,-0.0253125,-0.0059375
3.167,-0.0253125,-0.0059375
3.168,-0.0253125,-0.005625
3.169,-0.025625,-0.005625
3.17,-0.025625,-0.0053125
3.171,-0.025625,-0.005
3.172,-0.0259375,-0.005
3.173,-0.0259375,-0.0046875
3.174,-0.0259375,-0.0046875
3.175,-0.02625,-0.004375
3.176,-0.02625,-0.004375
3.177,-0.02625,-0.004375
3.178,-0.02625,-0.0040625
3.179,-0.0265625,-0.0040625
3.18,-0.0265625,-0.0040625
3.181,-0.0265625,-0.0040625
3.182,-0.0265625,-0.00375
3.183,-0.0265625,-0.00375
3.184,-0.0265625,-0.00375
3.185,-0.0265625,-0.00375
3.186,-0.026875,-0.00375
3.187,-0.026875,-0.00375
3.188,-0.026875,-0.0034375
3.189,-0.026875,-0.0034375
3.19,-0.026875,-0.0034375
3.191,-0.026875,-0.0034375
3.192,-0.026875,-0.0034375
3.193,-0.026875,-0.0034375
3.194,-0.026875,-0.0034375
3.195,-0.026875,-0.003125
3.196,-0.026875,-0.003125
3.197,-0.026875,-0.003125
3.198,-0.026875,-0.003125
3.199,-0.026875,-0.003125
3.2,-0.026875,-0.003125
3.201,-0.026875,-0.0028125
3.202,-0.026875,-0.0028125
3.203,-0.026875,-0.0025
3.204,-0.026875,-0.0025
3.205,-0.026875,-0.0025
3.206,-0.026875,-0.0025
3.207,-0.026875,-0.0021875
3.208,-0.026875,-0.0021875
3.209,-0.0265625,-0.0021875
3.21,-0.0265625,-0.001875
3.211,-0.026875,-0.001875
3.212,-0.026875,-0.001875
3.213,-0.026875,-0.001875
3.214,-0.026875,-0.0015625
3.215,-0.026875,-0.0015625
3.216,-0.026875,-0.0015625
3.217,-0.026875,-0.0015625
3.218,-0.026875,-0.00125
3.219,-0.026875,-0.00125
3.22,-0.0271875,-0.00125
3.221,-0.0271875,-0.0009375
3.222,-0.0271875,-0.0009375
3.223,-0.0271875,-0.0009375
3.224,-0.0275,-0.000625
3.225,-0.0275,-0.000625
3.226,-0.0275,-0.000625
3.227,-0.0275,-0.0003125
3.228,-0.0278125,-0.0003125
3.229,-0.0278125,-0.0003125
3.23,-0.0278125,0
3.231,-0.0278125,0
3.232,-0.0278125,0.0003125
3.233,-0.028125,0.000625
3.234,-0.028125,0.0009375
3.235,-0.028125,0.0009375
3.236,-0.028125,0.00125
3.237,-0.028125,0.0015625
3.238,-0.028125,0.0015625
3.239,-0.028125,0.0021875
3.24,-0.0284375,0.0021875
3.241,-0.0284375,0.0028125
3.242,-0.0284375,0.003125
3.243,-0.0284375,0.0034375
3.244,-0.0284375,0.00375
3.245,-0.0284375,0.004375
3.246,-0.0284375,0.0046875
3.247,-0.02875,0.005
3.248,-0.02875,0.005625
3.249,-0.02875,0.0059375
3.25,-0.0290625,0.0065625
3.251,-0.0290625,0.006875
3.252,-0.0290625,0.0071875
3.253,-0.029375,0.0078125
3.254,-0.029375,0.0084375
3.255,-0.029375,0.00875
3.256,-0.0296875,0.0096875
3.257,-0.0296875,0.01
3.258,-0.0296875,0.0109375
3.259,-0.0296875,0.0115625
3.26,-0.03,0.011875
3.261,-0.0296875,0.0128125
3.262,-0.0296875,0.01375
3.263,-0.0296875,0.014375
3.264,-0.0296875,0.015
3.265,-0.029375,0.0159375
3.266,-0.029375,0.016875
3.267,-0.02875,0.0178125
3.268,-0.02875,0.01875
3.269,-0.028125,0.0196875
3.27,-0.0278125,0.020625
3.271,-0.0275,0.021875
3.272,-0.026875,0.023125
3.273,-0.0259375,0.024375
3.274,-0.0253125,0.0259375
3.275,-0.024375,0.0271875
3.276,-0.0234375,0.02875
3.277,-0.0225,0.030625
3.278,-0.02125,0.0321875
3.279,-0.02,0.034375
3.28,-0.01875,0.0359375
3.281,-0.0171875,0.038125
3.282,-0.015625,0.0403125
3.283,-0.0140625,0.0425
3.284,-0.011875,0.045
3.285,-0.0103125,0.0475
3.286,-0.008125,0.05
3.287,-0.0059375,0.0525
3.288,-0.00375,0.055625
3.289,-0.0015625,0.0584375
3.29,0.0009375,0.0615625
3.291,0.0034375,0.0646875
3.292,0.0059375,0.0678125
3.293,0.00875,0.0709375
3.294,0.01125,0.0746875
3.295,0.014375,0.078125
3.296,0.0171875,0.0815625
3.297,0.0203125,0.0853125
3.298,0.023125,0.0890625
3.299,0.0265625,0.0928125
3.3,0.029375,0.0965625
3.301,0.0328125,0.100625
3.302,0.0359375,0.104375
3.303,0.0396875,0.1084375
3.304,0.0428125,0.1128125
3.305,0.0465625,0.1165625
3.306,0.05,0.1209375
3.307,0.0534375,0.125
3.308,0.0571875,0.1290625
3.309,0.0609375,0.1334375
3.31,0.0646875,0.1375
3.311,0.0684375,0.141875
3.312,0.0721875,0.1459375
3.313,0.0759375,0.150625
3.314,0.0796875,0.1546875
3.315,0.0834375,0.15875
3.316,0.0875,0.1634375
3.317,0.09125,0.1675
3.318,0.095,0.1721875
3.319,0.09875,0.17625
3.32,0.1028125,0.1803125
3.321,0.1065625,0.1846875
3.322,0.1103125,0.189375
3.323,0.114375,0.1934375
3.324,0.118125,0.1975
3.325,0.121875,0.201875
3.326,0.125625,0.20625
3.327,0.129375,0.2103125
3.328,0.1334375,0.2146875
3.329,0.1371875,0.21875
3.33,0.1409375,0.2228125
3.331,0.1446875,0.2271875
3.332,0.1484375,0.23125
3.333,0.1521875,0.2353125
3.334,0.155625,0.2396875
3.335,0.159375,0.2434375
3.336,0.163125,0.2478125
3.337,0.1665625,0.251875
3.338,0.1703125,0.255625
3.339,0.17375,0.26
3.34,0.1771875,0.26375
3.341,0.1809375,0.2678125
3.342,0.1840625,0.271875
3.343,0.1878125,0.2759375
3.344,0.19125,0.2796875
3.345,0.194375,0.2834375
3.346,0.198125,0.2871875
3.347,0.20125,0.29125
3.348,0.2046875,0.295
3.349,0.208125,0.29875
3.35,0.21125,0.3025
3.351,0.2146875,0.3059375
3.352,0.218125,0.3096875
3.353,0.2215625,0.3134375
3.354,0.2246875,0.316875
3.355,0.228125,0.320625
3.356,0.23125,0.324375
3.357,0.2346875,0.3278125
3.358,0.2378125,0.3315625
3.359,0.2409375,0.335
3.36,0.244375,0.3384375
3.361,0.2475,0.3421875
3.362,0.250625,0.3453125
3.363,0.2540625,0.3490625
3.364,0.2571875,0.3525
3.365,0.2603125,0.3559375
3.366,0.2634375,0.3590625
3.367,0.2665625,0.3625
3.368,0.2696875,0.3659375
3.369,0.2728125,0.3690625
3.37,0.2759375,0.3725
3.371,0.2790625,0.375625
3.372,0.2821875,0.3784375
3.373,0.285,0.381875
3.374,0.288125,0.3846875
3.375,0.29125,0.3875
3.376,0.2940625,0.390625
3.377,0.296875,0.393125
3.378,0.2996875,0.3959375
3.379,0.3025,0.39875
3.38,0.3053125,0.40125
3.381,0.308125,0.40375
3.382,0.310625,0.40625
3.383,0.3134375,0.40875
3.384,0.3159375,0.4109375
3.385,0.3184375,0.413125
3.386,0.3209375,0.4153125
3.387,0.3234375,0.4175
3.388,0.3259375,0.4190625
3.389,0.3284375,0.4209375
3.39,0.3309375,0.423125
3.391,0.333125,0.4246875
3.392,0.335625,0.4265625
3.393,0.3378125,0.4278125
3.394,0.34,0.4296875
3.395,0.3421875,0.4309375
3.396,0.3446875,0.4321875
3.397,0.346875,0.4334375
3.398,0.34875,0.4346875
3.399,0.3509375,0.4359375
3.4,0.353125,0.4371875
3.401,0.3553125,0.438125
3.402,0.3575,0.4390625
3.403,0.359375,0.44
3.404,0.3615625,0.440625
3.405,0.3634375,0.4415625
3.406,0.365625,0.4425
3.407,0.3675,0.443125
3.408,0.3696875,0.4434375
3.409,0.371875,0.4440625
3.41,0.37375,0.444375
3.411,0.375625,0.4446875
3.412,0.3778125,0.445
3.413,0.3796875,0.445
3.414,0.3815625,0.4453125
3.415,0.38375,0.4453125
3.416,0.3859375,0.445
3.417,0.3875,0.445
3.418,0.3896875,0.444375
3.419,0.3915625,0.4440625
3.42,0.39375,0.44375
3.421,0.3953125,0.4428125
3.422,0.3975,0.4421875
3.423,0.3990625,0.441875
3.424,0.40125,0.4409375
3.425,0.4028125,0.44
3.426,0.405,0.4390625
3.427,0.4065625,0.4378125
3.428,0.408125,0.436875
3.429,0.4103125,0.435625
3.43,0.411875,0.434375
3.431,0.41375,0.433125
3.432,0.4153125,0.4315625
3.433,0.416875,0.43
3.434,0.41875,0.42875
3.435,0.4203125,0.4271875
3.436,0.421875,0.425625
3.437,0.4234375,0.4240625
3.438,0.425,0.4221875
3.439,0.4265625,0.420625
3.44,0.428125,0.41875
3.441,0.4296875,0.4171875
3.442,0.43125,0.4153125
3.443,0.4325,0.4134375
3.444,0.43375,0.411875
3.445,0.4353125,0.4103125
3.446,0.4365625,0.4084375
3.447,0.4378125,0.406875
3.448,0.4390625,0.405
3.449,0.4403125,0.4034375
3.45,0.4415625,0.401875
3.451,0.4425,0.4003125
3.452,0.44375,0.39875
3.453,0.445,0.3971875
3.454,0.4459375,0.3959375
3.455,0.446875,0.3940625
3.456,0.448125,0.3928125
3.457,0.44875,0.3915625
3.458,0.4496875,0.39
3.459,0.450625,0.3884375
3.46,0.4515625,0.3871875
3.461,0.4521875,0.385625
3.462,0.453125,0.3840625
3.463,0.45375,0.3828125
3.464,0.4546875,0.3809375
3.465,0.4553125,0.3796875
3.466,0.45625,0.3784375
3.467,0.4565625,0.3765625
3.468,0.4575,0.3753125
3.469,0.4578125,0.37375
3.47,0.45875,0.3721875
3.471,0.4590625,0.3709375
3.472,0.46,0.369375
3.473,0.4603125,0.3678125
3.474,0.4609375,0.3665625
3.475,0.46125,0.365
3.476,0.461875,0.3634375
3.477,0.4628125,0.361875
3.478,0.463125,0.3603125
3.479,0.4634375,0.35875
3.48,0.4640625,0.3571875
3.481,0.4646875,0.355625
3.482,0.465,0.35375
3.483,0.465625,0.3521875
3.484,0.4659375,0.3503125
3.485,0.4665625,0.34875
3.486,0.466875,0.3471875
3.487,0.4675,0.3453125
3.488,0.4678125,0.3434375
3.489,0.468125,0.341875
3.49,0.4684375,0.34
3.491,0.46875,0.338125
3.492,0.4690625,0.33625
3.493,0.469375,0.3346875
3.494,0.4696875,0.3328125
3.495,0.47,0.3309375
3.496,0.47,0.329375
3.497,0.47,0.3275
3.498,0.4703125,0.325625
3.499,0.4703125,0.3240625
3.5,0.4703125,0.3221875
3.501,0.4703125,0.320625
3.502,0.4703125,0.3184375
3.503,0.4703125,0.316875
3.504,0.4703125,0.3153125
3.505,0.47,0.313125
3.506,0.47,0.3115625
3.507,0.4696875,0.309375
3.508,0.469375,0.3078125
3.509,0.4690625,0.30625
3.51,0.46875,0.3040625
3.511,0.468125,0.3025
3.512,0.4678125,0.300625
3.513,0.4675,0.2984375
3.514,0.4665625,0.296875
3.515,0.4659375,0.2946875
3.516,0.465625,0.2928125
3.517,0.4646875,0.29125
3.518,0.464375,0.2890625
3.519,0.4634375,0.2875
3.52,0.4625,0.2853125
3.521,0.461875,0.283125
3.522,0.46125,0.28125
3.523,0.4603125,0.279375
3.524,0.459375,0.2771875
3.525,0.45875,0.2753125
3.526,0.4578125,0.273125
3.527,0.456875,0.27125
3.528,0.45625,0.26875
3.529,0.455,0.2665625
3.53,0.454375,0.264375
3.531,0.453125,0.2621875
3.532,0.4525,0.26
3.533,0.45125,0.2578125
3.534,0.450625,0.2553125
3.535,0.449375,0.2528125
3.536,0.4484375,0.250625
3.537,0.4478125,0.248125
3.538,0.4465625,0.245625
3.539,0.445625,0.243125
3.54,0.4446875,0.240625
3.541,0.44375,0.238125
3.542,0.4428125,0.235625
3.543,0.441875,0.233125
3.544,0.4409375,0.230625
3.545,0.44,0.2278125
3.546,0.4390625,0.2253125
3.547,0.438125,0.2225
3.548,0.4371875,0.2196875
3.549,0.43625,0.2171875
3.55,0.4353125,0.214375
3.551,0.434375,0.2115625
3.552,0.43375,0.20875
3.553,0.4328125,0.2059375
3.554,0.431875,0.203125
3.555,0.4309375,0.2003125
3.556,0.4303125,0.1971875
3.557,0.429375,0.194375
3.558,0.42875,0.19125
3.559,0.4278125,0.188125
3.56,0.426875,0.1853125
3.561,0.42625,0.1825
3.562,0.4253125,0.1790625
3.563,0.4246875,0.17625
3.564,0.4240625,0.1728125
3.565,0.4234375,0.17
3.566,0.4225,0.1665625
3.567,0.4215625,0.1634375
3.568,0.42125,0.1603125
3.569,0.420625,0.1571875
3.57,0.4196875,0.15375
3.571,0.41875,0.1503125
3.572,0.418125,0.1471875
3.573,0.4178125,0.14375
3.574,0.416875,0.140625
3.575,0.41625,0.1371875
3.576,0.4153125,0.13375
3.577,0.415,0.1303125
3.578,0.4140625,0.1271875
3.579,0.4134375,0.12375
3.58,0.4125,0.1203125
3.581,0.4121875,0.1171875
3.582,0.4115625,0.11375
3.583,0.410625,0.1103125
3.584,0.4096875,0.106875
3.585,0.409375,0.10375
3.586,0.4084375,0.100625
3.587,0.4075,0.0975
3.588,0.406875,0.0940625
3.589,0.40625,0.090625
3.59,0.4053125,0.0878125
3.591,0.405,0.084375
3.592,0.4040625,0.0815625
3.593,0.403125,0.078125
3.594,0.4028125,0.0753125
3.595,0.401875,0.0725
3.596,0.40125,0.069375
3.597,0.4003125,0.0665625
3.598,0.4,0.0634375
3.599,0.399375,0.060625
3.6,0.3984375,0.0578125
3.601,0.398125,0.0553125
3.602,0.3978125,0.0525
3.603,0.3971875,0.0496875
3.604,0.3965625,0.0471875
3.605,0.39625,0.044375
3.606,0.395625,0.041875
3.607,0.3953125,0.039375
3.608,0.395,0.036875
3.609,0.3946875,0.034375
3.61,0.394375,0.031875
3.611,0.394375,0.029375
3.612,0.3940625,0.0271875
3.613,0.39375,0.0246875
3.614,0.39375,0.0225
3.615,0.3934375,0.0203125
3.616,0.3934375,0.018125
3.617,0.393125,0.015625
3.618,0.393125,0.01375
3.619,0.393125,0.0115625
3.62,0.3928125,0.009375
3.621,0.3928125,0.0075
3.622,0.3928125,0.005625
3.623,0.3928125,0.0034375
3.624,0.3925,0.0015625
3.625,0.3925,-0.0003125
3.626,0.3925,-0.0025
3.627,0.3921875,-0.0040625
3.628,0.3921875,-0.00625
3.629,0.391875,-0.0078125
3.63,0.391875,-0.009375
3.631,0.3915625,-0.01125
3.632,0.39125,-0.013125
3.633,0.3909375,-0.0146875
3.634,0.390625,-0.01625
3.635,0.3903125,-0.018125
3.636,0.3896875,-0.0196875
3.637,0.389375,-0.0209375
3.638,0.3890625,-0.0228125
3.639,0.388125,-0.0240625
3.64,0.3875,-0.0253125
3.641,0.3871875,-0.026875
3.642,0.38625,-0.028125
3.643,0.385625,-0.029375
3.644,0.3846875,-0.030625
3.645,0.3840625,-0.0315625
3.646,0.383125,-0.0328125
3.647,0.3821875,-0.0340625
3.648,0.38125,-0.035
3.649,0.3803125,-0.0359375
3.65,0.379375,-0.0371875
3.651,0.378125,-0.0378125
3.652,0.376875,-0.0390625
3.653,0.3759375,-0.0396875
3.654,0.3746875,-0.040625
3.655,0.3734375,-0.04125
3.656,0.3721875,-0.0421875
3.657,0.3709375,-0.0425
3.658,0.3696875,-0.0434375
3.659,0.368125,-0.0440625
3.66,0.366875,-0.044375
3.661,0.3653125,-0.0446875
3.662,0.36375,-0.0453125
3.663,0.3625,-0.045625
3.664,0.3609375,-0.0459375
3.665,0.359375,-0.0465625
3.666,0.3578125,-0.0465625
3.667,0.35625,-0.0471875
3.668,0.354375,-0.0471875
3.669,0.353125,-0.0475
3.67,0.35125,-0.0478125
3.671,0.3496875,-0.048125
3.672,0.348125,-0.048125
3.673,0.34625,-0.048125
3.674,0.3446875,-0.0484375
3.675,0.3428125,-0.0484375
3.676,0.34125,-0.0484375
3.677,0.339375,-0.0484375
3.678,0.3378125,-0.0484375
3.679,0.3359375,-0.0484375
3.68,0.334375,-0.048125
3.681,0.3325,-0.048125
3.682,0.3309375,-0.0478125
3.683,0.329375,-0.0475
3.684,0.3278125,-0.0471875
3.685,0.3259375,-0.0465625
3.686,0.324375,-0.04625
3.687,0.3228125,-0.0459375
3.688,0.32125,-0.045
3.689,0.3196875,-0.0446875
3.69,0.318125,-0.04375
3.691,0.316875,-0.0428125
3.692,0.3153125,-0.0421875
3.693,0.31375,-0.04125
3.694,0.3125,-0.04
3.695,0.31125,-0.03875
3.696,0.3096875,-0.0375
3.697,0.3084375,-0.03625
3.698,0.3071875,-0.035
3.699,0.3059375,-0.0334375
3.7,0.3046875,-0.0315625
3.701,0.3034375,-0.03
3.702,0.3025,-0.0278125
3.703,0.30125,-0.02625
3.704,0.3,-0.0240625
3.705,0.2990625,-0.021875
3.706,0.2978125,-0.019375
3.707,0.2971875,-0.016875
3.708,0.2959375,-0.014375
3.709,0.295,-0.011875
3.71,0.2940625,-0.0090625
3.711,0.293125,-0.00625
3.712,0.2921875,-0.003125
3.713,0.29125,0
3.714,0.290625,0.003125
3.715,0.2896875,0.006875
3.716,0.28875,0.01
3.717,0.2884375,0.01375
3.718,0.2878125,0.0175
3.719,0.286875,0.0215625
3.72,0.2865625,0.025625
3.721,0.28625,0.0296875
3.722,0.285625,0.03375
3.723,0.285625,0.038125
3.724,0.285,0.0428125
3.725,0.285,0.0471875
3.726,0.285,0.051875
3.727,0.285,0.0565625
3.728,0.285,0.0615625
3.729,0.285,0.0665625
3.73,0.2853125,0.0715625
3.731,0.285625,0.0765625
3.732,0.28625,0.081875
3.733,0.2865625,0.0871875
3.734,0.2875,0.0925
3.735,0.288125,0.0978125
3.736,0.28875,0.1034375
3.737,0.29,0.10875
3.738,0.290625,0.1140625
3.739,0.291875,0.12
3.74,0.293125,0.125625
3.741,0.294375,0.1309375
3.742,0.295625,0.136875
3.743,0.2975,0.1421875
3.744,0.29875,0.1478125
3.745,0.3003125,0.153125
3.746,0.3021875,0.1590625
3.747,0.30375,0.164375
3.748,0.3059375,0.17
3.749,0.3075,0.1753125
3.75,0.3096875,0.180625
3.751,0.3115625,0.18625
3.752,0.31375,0.19125
3.753,0.3159375,0.196875
3.754,0.3178125,0.201875
3.755,0.32,0.2071875
3.756,0.3221875,0.2121875
3.757,0.3240625,0.2171875
3.758,0.32625,0.2221875
3.759,0.3284375,0.226875
3.76,0.3303125,0.231875
3.761,0.3325,0.23625
3.762,0.3346875,0.2409375
3.763,0.3365625,0.245625
3.764,0.3384375,0.25
3.765,0.3403125,0.2540625
3.766,0.3425,0.258125
3.767,0.3440625,0.2621875
3.768,0.34625,0.26625
3.769,0.3478125,0.27
3.77,0.3496875,0.2734375
3.771,0.3515625,0.2771875
3.772,0.353125,0.280625
3.773,0.3546875,0.2840625
3.774,0.35625,0.2871875
3.775,0.3578125,0.2903125
3.776,0.359375,0.293125
3.777,0.3609375,0.29625
3.778,0.3621875,0.29875
3.779,0.3634375,0.3015625
3.78,0.3646875,0.3040625
3.781,0.3659375,0.30625
3.782,0.3671875,0.30875
3.783,0.368125,0.3109375
3.784,0.3690625,0.3128125
3.785,0.37,0.3146875
3.786,0.3709375,0.3165625
3.787,0.3715625,0.318125
3.788,0.3725,0.3196875
3.789,0.3728125,0.3209375
3.79,0.37375,0.3221875
3.791,0.374375,0.3234375
3.792,0.3746875,0.324375
3.793,0.375,0.3253125
3.794,0.375625,0.32625
3.795,0.3759375,0.326875
3.796,0.3759375,0.3271875
3.797,0.37625,0.328125
3.798,0.3765625,0.3284375
3.799,0.3765625,0.3290625
3.8,0.3765625,0.3290625
3.801,0.3765625,0.3296875
3.802,0.3765625,0.3296875
3.803,0.37625,0.33
3.804,0.37625,0.33
3.805,0.3759375,0.33
3.806,0.375625,0.33
3.807,0.3753125,0.3296875
3.808,0.375,0.3296875
3.809,0.3746875,0.329375
3.81,0.374375,0.3290625
3.811,0.37375,0.32875
3.812,0.3734375,0.3284375
3.813,0.3728125,0.3278125
3.814,0.3725,0.3275
3.815,0.371875,0.3271875
3.816,0.37125,0.326875
3.817,0.3709375,0.32625
3.818,0.37,0.3259375
3.819,0.3696875,0.325625
3.82,0.3690625,0.325
3.821,0.368125,0.3246875
3.822,0.3678125,0.324375
3.823,0.366875,0.32375
3.824,0.36625,0.3234375
3.825,0.3653125,0.323125
3.826,0.365,0.3225
3.827,0.3640625,0.3221875
3.828,0.36375,0.321875
3.829,0.3628125,0.32125
3.83,0.361875,0.3209375
3.831,0.3615625,0.3203125
3.832,0.360625,0.32
3.833,0.36,0.319375
3.834,0.3590625,0.3190625
3.835,0.35875,0.31875
3.836,0.3578125,0.318125
3.837,0.356875,0.3178125
3.838,0.3565625,0.316875
3.839,0.355625,0.3165625
3.84,0.3546875,0.31625
3.841,0.354375,0.3153125
3.842,0.3534375,0.315
3.843,0.3528125,0.3140625
3.844,0.351875,0.3134375
3.845,0.3509375,0.313125
3.846,0.3503125,0.3121875
3.847,0.349375,0.31125
3.848,0.34875,0.310625
3.849,0.3478125,0.3096875
3.85,0.346875,0.3090625
3.851,0.3459375,0.3078125
3.852,0.345,0.3071875
3.853,0.344375,0.3059375
3.854,0.3434375,0.305
3.855,0.3425,0.3040625
3.856,0.3415625,0.3028125
3.857,0.3409375,0.301875
3.858,0.34,0.300625
3.859,0.3390625,0.299375
3.86,0.338125,0.298125
3.861,0.3371875,0.2971875
3.862,0.3365625,0.295625
3.863,0.335625,0.294375
3.864,0.3346875,0.293125
3.865,0.33375,0.291875
3.866,0.3328125,0.290625
3.867,0.331875,0.289375
3.868,0.3309375,0.288125
3.869,0.33,0.286875
3.87,0.3290625,0.285625
3.871,0.328125,0.284375
3.872,0.3271875,0.283125
3.873,0.32625,0.281875
3.874,0.3253125,0.280625
3.875,0.324375,0.279375
3.876,0.3234375,0.278125
3.877,0.3221875,0.276875
3.878,0.3215625,0.275625
3.879,0.320625,0.274375
3.88,0.319375,0.273125
3.881,0.31875,0.271875
3.882,0.3175,0.270625
3.883,0.316875,0.269375
3.884,0.3159375,0.268125
3.885,0.315,0.2671875
3.886,0.3140625,0.2659375
3.887,0.313125,0.2646875
3.888,0.3125,0.2634375
3.889,0.31125,0.2625
3.89,0.3103125,0.26125
3.891,0.3096875,0.26
3.892,0.3084375,0.2590625
3.893,0.3078125,0.2578125
3.894,0.306875,0.256875
3.895,0.3059375,0.2559375
3.896,0.305,0.255
3.897,0.3040625,0.25375
3.898,0.303125,0.253125
3.899,0.3021875,0.2521875
3.9,0.3015625,0.25125
3.901,0.300625,0.2503125
3.902,0.3,0.2496875
3.903,0.2990625,0.24875
3.904,0.298125,0.2478125
3.905,0.2975,0.2471875
3.906,0.2965625,0.2465625
3.907,0.295625,0.245625
3.908,0.295,0.245
3.909,0.2940625,0.244375
3.91,0.2934375,0.2434375
3.911,0.2925,0.2428125
3.912,0.2915625,0.2425
3.913,0.2909375,0.2415625
3.914,0.29,0.24125
3.915,0.2890625,0.240625
3.916,0.288125,0.2403125
3.917,0.2875,0.2396875
3.918,0.2865625,0.239375
3.919,0.285625,0.23875
3.92,0.2846875,0.2384375
3.921,0.2840625,0.238125
3.922,0.283125,0.2378125
3.923,0.2821875,0.2371875
3.924,0.28125,0.236875
3.925,0.280625,0.2365625
3.926,0.2796875,0.2359375
3.927,0.27875,0.235625
3.928,0.2778125,0.235
3.929,0.2771875,0.2346875
3.93,0.27625,0.23375
3.931,0.275625,0.2334375
3.932,0.2746875,0.2328125
3.933,0.27375,0.231875
3.934,0.273125,0.2315625
3.935,0.2725,0.230625
3.936,0.2715625,0.23
3.937,0.270625,0.2290625
3.938,0.27,0.2284375
3.939,0.269375,0.2275
3.94,0.2684375,0.2265625
3.941,0.268125,0.225625
3.942,0.2671875,0.224375
3.943,0.266875,0.22375
3.944,0.2659375,0.2225
3.945,0.265625,0.22125
3.946,0.2646875,0.22
3.947,0.264375,0.21875
3.948,0.2634375,0.2175
3.949,0.263125,0.2159375
3.95,0.2628125,0.214375
3.951,0.261875,0.2128125
3.952,0.2615625,0.21125
3.953,0.2609375,0.209375
3.954,0.26,0.2078125
3.955,0.2596875,0.20625
3.956,0.25875,0.2040625
3.957,0.258125,0.2025
3.958,0.2578125,0.2003125
3.959,0.256875,0.19875
3.96,0.2565625,0.1965625
3.961,0.255625,0.1946875
3.962,0.2553125,0.1928125
3.963,0.254375,0.190625
3.964,0.25375,0.1884375
3.965,0.253125,0.1865625
3.966,0.2521875,0.184375
3.967,0.2515625,0.1821875
3.968,0.250625,0.1803125
3.969,0.25,0.178125
3.97,0.2490625,0.175625
3.971,0.2484375,0.1734375
3.972,0.2475,0.17125
3.973,0.246875,0.16875
3.974,0.2459375,0.1665625
3.975,0.245,0.164375
3.976,0.2440625,0.161875
3.977,0.2434375,0.1596875
3.978,0.2425,0.1571875
3.979,0.2415625,0.155
3.98,0.240625,0.1525
3.981,0.24,0.15
3.982,0.2390625,0.1475
3.983,0.238125,0.145
3.984,0.2371875,0.1425
3.985,0.23625,0.14
3.986,0.2353125,0.1375
3.987,0.2346875,0.1346875
3.988,0.23375,0.131875
3.989,0.2328125,0.129375
3.99,0.2321875,0.1265625
3.991,0.23125,0.12375
3.992,0.2303125,0.1209375
3.993,0.2296875,0.1178125
3.994,0.22875,0.1153125
3.995,0.2278125,0.111875
3.996,0.2271875,0.1090625
3.997,0.22625,0.10625
3.998,0.225625,0.103125
3.999,0.2246875,0.1003125
4,0.22375,0.096875
4.001,0.223125,0.0940625
4.002,0.2221875,0.0909375
4.003,0.2215625,0.0878125
4.004,0.220625,0.0846875
4.005,0.2196875,0.0815625
4.006,0.2190625,0.0784375
4.007,0.218125,0.0753125
4.008,0.2175,0.0721875
4.009,0.216875,0.0690625
4.01,0.2159375,0.0659375
4.011,0.215,0.0625
4.012,0.214375,0.0596875
4.013,0.2134375,0.05625
4.014,0.213125,0.0534375
4.015,0.2121875,0.05
4.016,0.21125,0.0471875
4.017,0.2109375,0.0440625
4.018,0.21,0.0409375
4.019,0.2096875,0.0378125
4.02,0.2090625,0.0346875
4.021,0.208125,0.031875
4.022,0.2078125,0.0290625
4.023,0.2071875,0.0259375
4.024,0.20625,0.0228125
4.025,0.2059375,0.02
4.026,0.205,0.0165625
4.027,0.2046875,0.01375
4.028,0.20375,0.0109375
4.029,0.2034375,0.0078125
4.03,0.2028125,0.0046875
4.031,0.2025,0.0015625
4.032,0.2015625,-0.0015625
4.033,0.2009375,-0.004375
4.034,0.200625,-0.0078125
4.035,0.2,-0.0109375
4.036,0.1996875,-0.01375
4.037,0.1990625,-0.016875
4.038,0.1984375,-0.02
4.039,0.1978125,-0.0228125
4.04,0.1975,-0.02625
4.041,0.196875,-0.0290625
4.042,0.19625,-0.0321875
4.043,0.1959375,-0.0353125
4.044,0.195625,-0.038125
4.045,0.1946875,-0.04125
4.046,0.194375,-0.0446875
4.047,0.1940625,-0.0475
4.048,0.193125,-0.0503125
4.049,0.1928125,-0.0534375
4.05,0.1925,-0.0565625
4.051,0.1915625,-0.0596875
4.052,0.19125,-0.0625
4.053,0.190625,-0.0653125
4.054,0.1896875,-0.0684375
4.055,0.189375,-0.07125
4.056,0.18875,-0.0740625
4.057,0.1878125,-0.076875
4.058,0.1875,-0.0796875
4.059,0.1865625,-0.0825
4.06,0.185625,-0.085
4.061,0.185,-0.0878125
4.062,0.184375,-0.0903125
4.063,0.18375,-0.0928125
4.064,0.1828125,-0.095625
4.065,0.181875,-0.098125
4.066,0.18125,-0.100625
4.067,0.180625,-0.103125
4.068,0.1796875,-0.105625
4.069,0.1790625,-0.108125
4.07,0.178125,-0.1103125
4.071,0.1775,-0.1128125
4.072,0.1765625,-0.1153125
4.073,0.1759375,-0.1175
4.074,0.175,-0.1196875
4.075,0.1740625,-0.121875
4.076,0.1734375,-0.1240625
4.077,0.1725,-0.12625
4.078,0.171875,-0.1284375
4.079,0.1709375,-0.130625
4.08,0.17,-0.1325
4.081,0.1690625,-0.1346875
4.082,0.1684375,-0.136875
4.083,0.1675,-0.13875
4.084,0.1665625,-0.140625
4.085,0.165625,-0.1428125
4.086,0.165,-0.144375
4.087,0.1640625,-0.14625
4.088,0.163125,-0.1484375
4.089,0.1625,-0.15
4.09,0.1615625,-0.151875
4.091,0.1609375,-0.15375
4.092,0.16,-0.1553125
4.093,0.159375,-0.156875
4.094,0.1584375,-0.15875
4.095,0.1578125,-0.1603125
4.096,0.156875,-0.161875
4.097,0.15625,-0.1634375
4.098,0.155625,-0.1646875
4.099,0.1546875,-0.1665625
4.1,0.15375,-0.1678125
4.101,0.153125,-0.1690625
4.102,0.1525,-0.170625
4.103,0.151875,-0.171875
4.104,0.1509375,-0.173125
4.105,0.15,-0.174375
4.106,0.1496875,-0.175625
4.107,0.14875,-0.176875
4.108,0.148125,-0.1778125
4.109,0.1471875,-0.1790625
4.11,0.146875,-0.1803125
4.111,0.1459375,-0.18125
4.112,0.145625,-0.1821875
4.113,0.1446875,-0.183125
4.114,0.144375,-0.1840625
4.115,0.1440625,-0.185
4.116,0.143125,-0.1859375
4.117,0.1428125,-0.1865625
4.118,0.1421875,-0.1871875
4.119,0.141875,-0.188125
4.12,0.14125,-0.1890625
4.121,0.1409375,-0.189375
4.122,0.1403125,-0.19
4.123,0.14,-0.1909375
4.124,0.1396875,-0.1915625
4.125,0.139375,-0.1921875
4.126,0.13875,-0.193125
4.127,0.1384375,-0.1934375
4.128,0.138125,-0.194375
4.129,0.1378125,-0.1946875
4.13,0.1371875,-0.195625
4.131,0.136875,-0.1959375
4.132,0.1365625,-0.196875
4.133,0.13625,-0.1971875
4.134,0.135625,-0.1975
4.135,0.1353125,-0.1984375
4.136,0.1346875,-0.19875
4.137,0.134375,-0.1990625
4.138,0.13375,-0.1996875
4.139,0.1334375,-0.2003125
4.14,0.1328125,-0.200625
4.141,0.1325,-0.20125
4.142,0.131875,-0.2015625
4.143,0.1315625,-0.201875
4.144,0.1309375,-0.2025
4.145,0.1303125,-0.2028125
4.146,0.13,-0.203125
4.147,0.1290625,-0.2034375
4.148,0.12875,-0.2040625
4.149,0.128125,-0.2040625
4.15,0.1278125,-0.2046875
4.151,0.126875,-0.2046875
4.152,0.1265625,-0.2053125
4.153,0.125625,-0.205625
4.154,0.125,-0.205625
4.155,0.124375,-0.2059375
4.156,0.1234375,-0.20625
4.157,0.1228125,-0.20625
4.158,0.1221875,-0.20625
4.159,0.121875,-0.2065625
4.16,0.1209375,-0.2065625
4.161,0.1203125,-0.2065625
4.162,0.1196875,-0.2065625
4.163,0.11875,-0.2065625
4.164,0.1184375,-0.2065625
4.165,0.1175,-0.206875
4.166,0.1171875,-0.206875
4.167,0.11625,-0.206875
4.168,0.1159375,-0.206875
4.169,0.115,-0.206875
4.17,0.1146875,-0.206875
4.171,0.1140625,-0.206875
4.172,0.11375,-0.206875
4.173,0.1128125,-0.2071875
4.174,0.1125,-0.2071875
4.175,0.1115625,-0.2071875
4.176,0.11125,-0.2075
4.177,0.1103125,-0.2075
4.178,0.11,-0.2075
4.179,0.109375,-0.2075
4.18,0.10875,-0.2075
4.181,0.108125,-0.2078125
4.182,0.1075,-0.2078125
4.183,0.1065625,-0.2078125
4.184,0.10625,-0.2078125
4.185,0.1053125,-0.2078125
4.186,0.1046875,-0.2078125
4.187,0.104375,-0.2078125
4.188,0.1034375,-0.2078125
4.189,0.103125,-0.2078125
4.19,0.1021875,-0.2078125
4.191,0.1015625,-0.2078125
4.192,0.1009375,-0.2078125
4.193,0.1,-0.2078125
4.194,0.0996875,-0.2078125
4.195,0.09875,-0.2078125
4.196,0.0984375,-0.2078125
4.197,0.0975,-0.2078125
4.198,0.096875,-0.2078125
4.199,0.0959375,-0.2078125
4.2,0.0953125,-0.208125
4.201,0.0946875,-0.208125
4.202,0.0940625,-0.208125
4.203,0.093125,-0.2084375
4.204,0.0925,-0.2084375
4.205,0.091875,-0.2084375
4.206,0.0909375,-0.20875
4.207,0.09,-0.20875
4.208,0.089375,-0.2090625
4.209,0.08875,-0.2090625
4.21,0.0878125,-0.209375
4.211,0.0871875,-0.2096875
4.212,0.08625,-0.21
4.213,0.085625,-0.2103125
4.214,0.0846875,-0.2103125
4.215,0.0840625,-0.210625
4.216,0.083125,-0.2109375
4.217,0.0821875,-0.2109375
4.218,0.08125,-0.21125
4.219,0.080625,-0.2115625
4.22,0.0796875,-0.2115625
4.221,0.0790625,-0.211875
4.222,0.078125,-0.2121875
4.223,0.0771875,-0.2121875
4.224,0.0765625,-0.2125
4.225,0.075625,-0.2125
4.226,0.075,-0.2125
4.227,0.0740625,-0.2128125
4.228,0.073125,-0.2128125
4.229,0.0725,-0.2128125
4.23,0.0715625,-0.2128125
4.231,0.0709375,-0.2128125
4.232,0.07,-0.2128125
4.233,0.069375,-0.2128125
4.234,0.0684375,-0.2128125
4.235,0.0678125,-0.2125
4.236,0.066875,-0.2125
4.237,0.06625,-0.2121875
4.238,0.0653125,-0.211875
4.239,0.064375,-0.211875
4.24,0.0640625,-0.2115625
4.241,0.063125,-0.21125
4.242,0.0621875,-0.2109375
4.243,0.061875,-0.210625
4.244,0.0609375,-0.21
4.245,0.060625,-0.2096875
4.246,0.06,-0.209375
4.247,0.0590625,-0.2090625
4.248,0.05875,-0.2084375
4.249,0.0578125,-0.208125
4.25,0.0571875,-0.2075
4.251,0.056875,-0.2071875
4.252,0.0559375,-0.2065625
4.253,0.055625,-0.20625
4.254,0.0546875,-0.2059375
4.255,0.0540625,-0.2053125
4.256,0.05375,-0.2046875
4.257,0.0528125,-0.204375
4.258,0.0525,-0.2034375
4.259,0.0521875,-0.203125
4.26,0.05125,-0.2028125
4.261,0.050625,-0.201875
4.262,0.0503125,-0.2015625
4.263,0.0496875,-0.2009375
4.264,0.049375,-0.2003125
4.265,0.0484375,-0.2
4.266,0.048125,-0.1996875
4.267,0.0478125,-0.1990625
4.268,0.0471875,-0.19875
4.269,0.0465625,-0.198125
4.27,0.04625,-0.1978125
4.271,0.045625,-0.1975
4.272,0.0453125,-0.1971875
4.273,0.045,-0.196875
4.274,0.044375,-0.1965625
4.275,0.0440625,-0.19625
4.276,0.04375,-0.19625
4.277,0.0434375,-0.1959375
4.278,0.043125,-0.1953125
4.279,0.0428125,-0.1953125
4.28,0.0425,-0.195
4.281,0.0421875,-0.1946875
4.282,0.041875,-0.194375
4.283,0.0415625,-0.194375
4.284,0.0415625,-0.1940625
4.285,0.04125,-0.1934375
4.286,0.0409375,-0.1934375
4.287,0.0409375,-0.193125
4.288,0.0409375,-0.1925
4.289,0.040625,-0.1925
4.29,0.040625,-0.191875
4.291,0.040625,-0.1915625
4.292,0.040625,-0.19125
4.293,0.040625,-0.190625
4.294,0.040625,-0.1903125
4.295,0.0409375,-0.19
4.296,0.0409375,-0.1890625
4.297,0.0409375,-0.1884375
4.298,0.04125,-0.188125
4.299,0.04125,-0.1875
4.3,0.0415625,-0.1865625
4.301,0.041875,-0.1859375
4.302,0.0421875,-0.185625
4.303,0.0421875,-0.1846875
4.304,0.0428125,-0.18375
4.305,0.043125,-0.1834375
4.306,0.043125,-0.1825
4.307,0.0434375,-0.1815625
4.308,0.0440625,-0.1809375
4.309,0.0440625,-0.18
4.31,0.0446875,-0.1796875
4.311,0.045,-0.17875
4.312,0.0453125,-0.178125
4.313,0.0459375,-0.1771875
4.314,0.04625,-0.1765625
4.315,0.0465625,-0.17625
4.316,0.0471875,-0.1753125
4.317,0.0478125,-0.174375
4.318,0.048125,-0.1740625
4.319,0.0484375,-0.173125
4.32,0.049375,-0.1725
4.321,0.0496875,-0.1721875
4.322,0.05,-0.17125
4.323,0.0509375,-0.1709375
4.324,0.05125,-0.17
4.325,0.0515625,-0.1696875
4.326,0.0521875,-0.16875
4.327,0.0528125,-0.168125
4.328,0.0534375,-0.1678125
4.329,0.05375,-0.166875
4.33,0.0540625,-0.1665625
4.331,0.0546875,-0.16625
4.332,0.055,-0.1653125
4.333,0.0553125,-0.165
4.334,0.0559375,-0.164375
4.335,0.0559375,-0.1640625
4.336,0.0565625,-0.163125
4.337,0.056875,-0.1628125
4.338,0.0571875,-0.1621875
4.339,0.0571875,-0.161875
4.34,0.0575,-0.1609375
4.341,0.0575,-0.160625
4.342,0.0575,-0.1603125
4.343,0.0578125,-0.1596875
4.344,0.0578125,-0.1590625
4.345,0.0578125,-0.15875
4.346,0.0578125,-0.158125
4.347,0.0578125,-0.1578125
4.348,0.0578125,-0.1575
4.349,0.0575,-0.156875
4.35,0.0575,-0.1565625
4.351,0.0575,-0.15625
4.352,0.0571875,-0.1559375
4.353,0.056875,-0.1553125
4.354,0.0565625,-0.1553125
4.355,0.0565625,-0.1546875
4.356,0.0559375,-0.154375
4.357,0.055625,-0.1540625
4.358,0.0553125,-0.15375
4.359,0.055,-0.1534375
4.36,0.054375,-0.153125
4.361,0.0540625,-0.1525
4.362,0.05375,-0.1521875
4.363,0.053125,-0.1521875
4.364,0.0528125,-0.151875
4.365,0.0521875,-0.1515625
4.366,0.051875,-0.1515625
4.367,0.05125,-0.15125
4.368,0.0509375,-0.1509375
4.369,0.050625,-0.1509375
4.37,0.05,-0.150625
4.371,0.0496875,-0.150625
4.372,0.0490625,-0.1503125
4.373,0.04875,-0.1503125
4.374,0.048125,-0.15
4.375,0.0478125,-0.15
4.376,0.0471875,-0.1496875
4.377,0.046875,-0.149375
4.378,0.04625,-0.1490625
4.379,0.0459375,-0.1490625
4.38,0.045625,-0.14875
4.381,0.045,-0.148125
4.382,0.0446875,-0.148125
4.383,0.0440625,-0.1475
4.384,0.04375,-0.1471875
4.385,0.043125,-0.146875
4.386,0.0428125,-0.14625
4.387,0.0425,-0.1459375
4.388,0.041875,-0.145625
4.389,0.0415625,-0.1453125
4.39,0.04125,-0.1446875
4.391,0.0409375,-0.144375
4.392,0.0403125,-0.1440625
4.393,0.04,-0.14375
4.394,0.0396875,-0.143125
4.395,0.039375,-0.1428125
4.396,0.03875,-0.1425
4.397,0.0384375,-0.1421875
4.398,0.038125,-0.1415625
4.399,0.0378125,-0.14125
4.4,0.0371875,-0.140625
4.401,0.036875,-0.1403125
4.402,0.0365625,-0.14
4.403,0.03625,-0.139375
4.404,0.035625,-0.13875
4.405,0.035625,-0.1384375
4.406,0.035,-0.1378125
4.407,0.0346875,-0.1375
4.408,0.034375,-0.136875
4.409,0.0340625,-0.1365625
4.41,0.03375,-0.1359375
4.411,0.03375,-0.135625
4.412,0.033125,-0.1353125
4.413,0.0328125,-0.135
4.414,0.0325,-0.1346875
4.415,0.0325,-0.134375
4.416,0.0321875,-0.1340625
4.417,0.031875,-0.13375
4.418,0.031875,-0.133125
4.419,0.0315625,-0.133125
4.42,0.0315625,-0.1328125
4.421,0.03125,-0.1321875
4.422,0.0309375,-0.131875
4.423,0.030625,-0.1315625
4.424,0.030625,-0.1309375
4.425,0.0303125,-0.130625
4.426,0.03,-0.1303125
4.427,0.03,-0.1296875
4.428,0.0296875,-0.129375
4.429,0.0296875,-0.12875
4.43,0.029375,-0.1284375
4.431,0.029375,-0.128125
4.432,0.0290625,-0.1275
4.433,0.0290625,-0.1271875
4.434,0.02875,-0.1265625
4.435,0.02875,-0.12625
4.436,0.02875,-0.125625
4.437,0.0284375,-0.1253125
4.438,0.0284375,-0.1246875
4.439,0.0284375,-0.1240625
4.44,0.028125,-0.12375
4.441,0.028125,-0.1234375
4.442,0.028125,-0.1228125
4.443,0.0278125,-0.1225
4.444,0.0278125,-0.121875
4.445,0.0278125,-0.1215625
4.446,0.0275,-0.1209375
4.447,0.0275,-0.120625
4.448,0.0275,-0.12
4.449,0.0275,-0.1196875
4.45,0.0275,-0.119375
4.451,0.0275,-0.1190625
4.452,0.0275,-0.11875
4.453,0.0275,-0.1184375
4.454,0.0275,-0.1184375
4.455,0.0275,-0.1178125
4.456,0.0275,-0.1178125
4.457,0.0275,-0.1175
4.458,0.0278125,-0.1171875
4.459,0.0278125,-0.1171875
4.46,0.0278125,-0.1165625
4.461,0.028125,-0.1165625
4.462,0.028125,-0.11625
4.463,0.0284375,-0.1159375
4.464,0.0284375,-0.115625
4.465,0.0284375,-0.115625
4.466,0.02875,-0.1153125
4.467,0.02875,-0.1146875
4.468,0.0290625,-0.1146875
4.469,0.0290625,-0.1140625
4.47,0.0290625,-0.1140625
4.471,0.029375,-0.1134375
4.472,0.029375,-0.113125
4.473,0.029375,-0.113125
4.474,0.029375,-0.1125
4.475,0.029375,-0.1125
4.476,0.029375,-0.111875
4.477,0.029375,-0.111875
4.478,0.0290625,-0.1115625
4.479,0.0290625,-0.1109375
4.48,0.0290625,-0.1109375
4.481,0.02875,-0.110625
4.482,0.02875,-0.1103125
4.483,0.0284375,-0.11
4.484,0.0284375,-0.11
4.485,0.0278125,-0.109375
4.486,0.0278125,-0.1090625
4.487,0.0271875,-0.1090625
4.488,0.026875,-0.10875
4.489,0.0265625,-0.10875
4.49,0.0259375,-0.108125
4.491,0.025625,-0.108125
4.492,0.025,-0.1078125
4.493,0.0246875,-0.1075
4.494,0.024375,-0.1075
4.495,0.02375,-0.106875
4.496,0.0234375,-0.1065625
4.497,0.0225,-0.1065625
4.498,0.0221875,-0.1059375
4.499,0.021875,-0.1059375
4.5,0.02125,-0.105625
4.501,0.0209375,-0.105
4.502,0.0203125,-0.105
4.503,0.02,-0.104375
4.504,0.019375,-0.1040625
4.505,0.0190625,-0.10375
4.506,0.01875,-0.1034375
4.507,0.0184375,-0.103125
4.508,0.018125,-0.1028125
4.509,0.0178125,-0.1021875
4.51,0.0175,-0.101875
4.511,0.0175,-0.1015625
4.512,0.0171875,-0.10125
4.513,0.016875,-0.100625
4.514,0.016875,-0.1003125
4.515,0.016875,-0.1
4.516,0.016875,-0.0996875
4.517,0.0165625,-0.099375
4.518,0.016875,-0.09875
4.519,0.016875,-0.0984375
4.52,0.016875,-0.098125
4.521,0.016875,-0.0978125
4.522,0.016875,-0.0971875
4.523,0.0171875,-0.0971875
4.524,0.0171875,-0.0965625
4.525,0.0171875,-0.0965625
4.526,0.0175,-0.0959375
4.527,0.0175,-0.095625
4.528,0.0178125,-0.095625
4.529,0.018125,-0.0953125
4.53,0.018125,-0.095
4.531,0.0184375,-0.095
4.532,0.01875,-0.0946875
4.533,0.01875,-0.094375
4.534,0.019375,-0.094375
4.535,0.019375,-0.0940625
4.536,0.0196875,-0.0940625
4.537,0.02,-0.09375
4.538,0.02,-0.0934375
4.539,0.020625,-0.0934375
4.54,0.0209375,-0.0928125
4.541,0.0209375,-0.0928125
4.542,0.02125,-0.0925
4.543,0.0215625,-0.0921875
4.544,0.021875,-0.091875
4.545,0.021875,-0.0915625
4.546,0.0225,-0.09125
4.547,0.0225,-0.0909375
4.548,0.0228125,-0.090625
4.549,0.023125,-0.0903125
4.55,0.0234375,-0.09
4.551,0.0234375,-0.0896875
4.552,0.02375,-0.089375
4.553,0.024375,-0.0890625
4.554,0.024375,-0.08875
4.555,0.0246875,-0.088125
4.556,0.025,-0.0878125
4.557,0.025,-0.0875
4.558,0.025625,-0.0871875
4.559,0.025625,-0.0865625
4.56,0.0259375,-0.0865625
4.561,0.02625,-0.0859375
4.562,0.02625,-0.0859375
4.563,0.0265625,-0.0853125
4.564,0.026875,-0.0853125
4.565,0.026875,-0.085
4.566,0.0271875,-0.084375
4.567,0.0275,-0.084375
4.568,0.0275,-0.0840625
4.569,0.0275,-0.08375
4.57,0.0278125,-0.08375
4.571,0.0278125,-0.083125
4.572,0.0278125,-0.0828125
4.573,0.028125,-0.0828125
4.574,0.028125,-0.0821875
4.575,0.028125,-0.0821875
