Interval=,0.001 s,
ExcelDateTime=,4.54E+04,57:15.3
TimeFormat=,StartOfBlock,
DateFormat=,,
ChannelTitle=,Channel 3,Channel 4
Range=,10.000 mV,10.000 mV
0,0,0
0.001,0,0
0.002,0,0
0.003,-0.0003125,0
0.004,-0.0003125,0
0.005,-0.0003125,0
0.006,-0.0003125,0
0.007,-0.0003125,0
0.008,-0.0003125,0
0.009,-0.0003125,0
0.01,-0.000625,-0.0003125
0.011,-0.000625,-0.0003125
0.012,-0.000625,-0.0003125
0.013,-0.0009375,-0.000625
0.014,-0.0009375,-0.0009375
0.015,-0.00125,-0.00125
0.016,-0.00125,-0.0015625
0.017,-0.0015625,-0.0025
0.018,-0.0015625,-0.003125
0.019,-0.001875,-0.004375
0.02,-0.0021875,-0.0053125
0.021,-0.0021875,-0.0065625
0.022,-0.0021875,-0.008125
0.023,-0.0025,-0.009375
0.024,-0.0025,-0.01125
0.025,-0.0028125,-0.0128125
0.026,-0.003125,-0.0140625
0.027,-0.003125,-0.0159375
0.028,-0.00375,-0.0171875
0.029,-0.00375,-0.0190625
0.03,-0.0040625,-0.0203125
0.031,-0.004375,-0.0215625
0.032,-0.0046875,-0.023125
0.033,-0.005,-0.024375
0.034,-0.005,-0.025625
0.035,-0.0053125,-0.026875
0.036,-0.0059375,-0.0284375
0.037,-0.00625,-0.0296875
0.038,-0.00625,-0.0309375
0.039,-0.0065625,-0.0325
0.04,-0.006875,-0.03375
0.041,-0.006875,-0.035625
0.042,-0.0071875,-0.0371875
0.043,-0.0071875,-0.0384375
0.044,-0.0075,-0.04
0.045,-0.0078125,-0.0415625
0.046,-0.0078125,-0.0428125
0.047,-0.0084375,-0.0440625
0.048,-0.0084375,-0.045
0.049,-0.00875,-0.0459375
0.05,-0.0090625,-0.046875
0.051,-0.009375,-0.0471875
0.052,-0.0096875,-0.0478125
0.053,-0.01,-0.048125
0.054,-0.0103125,-0.04875
0.055,-0.010625,-0.0490625
0.056,-0.010625,-0.049375
0.057,-0.01125,-0.0496875
0.058,-0.01125,-0.050625
0.059,-0.0115625,-0.0509375
0.06,-0.011875,-0.051875
0.061,-0.011875,-0.0525
0.062,-0.0121875,-0.05375
0.063,-0.0125,-0.0546875
0.064,-0.0128125,-0.055625
0.065,-0.0128125,-0.056875
0.066,-0.013125,-0.0578125
0.067,-0.0134375,-0.05875
0.068,-0.0134375,-0.0596875
0.069,-0.0140625,-0.0603125
0.07,-0.014375,-0.0609375
0.071,-0.014375,-0.06125
0.072,-0.0146875,-0.0615625
0.073,-0.0153125,-0.0615625
0.074,-0.015625,-0.0615625
0.075,-0.015625,-0.0615625
0.076,-0.0159375,-0.06125
0.077,-0.01625,-0.06125
0.078,-0.01625,-0.0609375
0.079,-0.01625,-0.0609375
0.08,-0.01625,-0.0609375
0.081,-0.0165625,-0.060625
0.082,-0.0165625,-0.060625
0.083,-0.0165625,-0.0603125
0.084,-0.0165625,-0.0603125
0.085,-0.0165625,-0.0596875
0.086,-0.016875,-0.059375
0.087,-0.016875,-0.0584375
0.088,-0.016875,-0.0578125
0.089,-0.0171875,-0.0565625
0.09,-0.0175,-0.0553125
0.091,-0.0178125,-0.0540625
0.092,-0.0178125,-0.0525
0.093,-0.018125,-0.050625
0.094,-0.018125,-0.0490625
0.095,-0.0184375,-0.0471875
0.096,-0.01875,-0.045625
0.097,-0.01875,-0.044375
0.098,-0.01875,-0.043125
0.099,-0.0190625,-0.041875
0.1,-0.0190625,-0.04125
0.101,-0.0190625,-0.040625
0.102,-0.0190625,-0.0403125
0.103,-0.019375,-0.04
0.104,-0.019375,-0.04
0.105,-0.0196875,-0.04
0.106,-0.0196875,-0.04
0.107,-0.0196875,-0.04
0.108,-0.0203125,-0.0403125
0.109,-0.0203125,-0.04
0.11,-0.020625,-0.04
0.111,-0.0209375,-0.04
0.112,-0.0215625,-0.0396875
0.113,-0.021875,-0.039375
0.114,-0.021875,-0.039375
0.115,-0.0221875,-0.0390625
0.116,-0.0225,-0.0390625
0.117,-0.0225,-0.0390625
0.118,-0.0228125,-0.0390625
0.119,-0.0228125,-0.039375
0.12,-0.0228125,-0.0396875
0.121,-0.0228125,-0.04
0.122,-0.0228125,-0.040625
0.123,-0.0228125,-0.0409375
0.124,-0.023125,-0.041875
0.125,-0.023125,-0.0421875
0.126,-0.023125,-0.0428125
0.127,-0.023125,-0.043125
0.128,-0.023125,-0.043125
0.129,-0.0234375,-0.043125
0.13,-0.0234375,-0.0428125
0.131,-0.0234375,-0.0425
0.132,-0.02375,-0.0415625
0.133,-0.02375,-0.04125
0.134,-0.0240625,-0.0403125
0.135,-0.0240625,-0.039375
0.136,-0.0240625,-0.0384375
0.137,-0.0240625,-0.0378125
0.138,-0.0240625,-0.036875
0.139,-0.0240625,-0.03625
0.14,-0.0240625,-0.035625
0.141,-0.0240625,-0.0353125
0.142,-0.0240625,-0.0346875
0.143,-0.0240625,-0.034375
0.144,-0.02375,-0.0340625
0.145,-0.02375,-0.03375
0.146,-0.0240625,-0.0334375
0.147,-0.0240625,-0.0328125
0.148,-0.0240625,-0.0325
0.149,-0.024375,-0.0315625
0.15,-0.024375,-0.03125
0.151,-0.0246875,-0.0303125
0.152,-0.0246875,-0.0296875
0.153,-0.0246875,-0.02875
0.154,-0.025,-0.0278125
0.155,-0.025,-0.026875
0.156,-0.0253125,-0.02625
0.157,-0.0253125,-0.0253125
0.158,-0.0253125,-0.025
0.159,-0.0253125,-0.024375
0.16,-0.025,-0.0240625
0.161,-0.025,-0.02375
0.162,-0.025,-0.02375
0.163,-0.025,-0.0234375
0.164,-0.025,-0.0234375
0.165,-0.025,-0.0234375
0.166,-0.025,-0.023125
0.167,-0.025,-0.023125
0.168,-0.025,-0.0228125
0.169,-0.0253125,-0.0225
0.17,-0.0253125,-0.021875
0.171,-0.025625,-0.0215625
0.172,-0.0259375,-0.020625
0.173,-0.0259375,-0.02
0.174,-0.02625,-0.0190625
0.175,-0.02625,-0.01875
0.176,-0.0265625,-0.0178125
0.177,-0.0265625,-0.0175
0.178,-0.0265625,-0.016875
0.179,-0.026875,-0.016875
0.18,-0.026875,-0.016875
0.181,-0.026875,-0.016875
0.182,-0.026875,-0.0171875
0.183,-0.026875,-0.0175
0.184,-0.0271875,-0.0178125
0.185,-0.0271875,-0.0184375
0.186,-0.0271875,-0.01875
0.187,-0.0275,-0.0196875
0.188,-0.0278125,-0.02
0.189,-0.028125,-0.0203125
0.19,-0.028125,-0.0209375
0.191,-0.02875,-0.0209375
0.192,-0.0290625,-0.02125
0.193,-0.0290625,-0.0215625
0.194,-0.029375,-0.0215625
0.195,-0.03,-0.0215625
0.196,-0.03,-0.021875
0.197,-0.03,-0.021875
0.198,-0.0303125,-0.0221875
0.199,-0.0303125,-0.0225
0.2,-0.0303125,-0.023125
0.201,-0.0303125,-0.0234375
0.202,-0.0303125,-0.02375
0.203,-0.0303125,-0.0246875
0.204,-0.03,-0.025
0.205,-0.03,-0.0259375
0.206,-0.03,-0.02625
0.207,-0.03,-0.0265625
0.208,-0.03,-0.0271875
0.209,-0.03,-0.0275
0.21,-0.0303125,-0.0275
0.211,-0.0303125,-0.0275
0.212,-0.0303125,-0.0275
0.213,-0.0303125,-0.0271875
0.214,-0.0303125,-0.026875
0.215,-0.030625,-0.0265625
0.216,-0.030625,-0.02625
0.217,-0.0303125,-0.0259375
0.218,-0.0303125,-0.0259375
0.219,-0.0303125,-0.025625
0.22,-0.0303125,-0.025625
0.221,-0.03,-0.0259375
0.222,-0.03,-0.0259375
0.223,-0.03,-0.0259375
0.224,-0.0296875,-0.02625
0.225,-0.0296875,-0.02625
0.226,-0.0296875,-0.02625
0.227,-0.0296875,-0.02625
0.228,-0.0296875,-0.02625
0.229,-0.0296875,-0.02625
0.23,-0.0296875,-0.0259375
0.231,-0.03,-0.025625
0.232,-0.03,-0.025
0.233,-0.03,-0.0246875
0.234,-0.0303125,-0.02375
0.235,-0.0303125,-0.0234375
0.236,-0.0303125,-0.023125
0.237,-0.0303125,-0.0221875
0.238,-0.0303125,-0.0221875
0.239,-0.0303125,-0.0215625
0.24,-0.0303125,-0.02125
0.241,-0.03,-0.02125
0.242,-0.03,-0.0209375
0.243,-0.0296875,-0.0203125
0.244,-0.029375,-0.0203125
0.245,-0.029375,-0.0196875
0.246,-0.0290625,-0.0190625
0.247,-0.0290625,-0.01875
0.248,-0.02875,-0.0178125
0.249,-0.0284375,-0.0165625
0.25,-0.028125,-0.015625
0.251,-0.028125,-0.014375
0.252,-0.028125,-0.0128125
0.253,-0.0278125,-0.01125
0.254,-0.0275,-0.0096875
0.255,-0.0271875,-0.0078125
0.256,-0.0271875,-0.00625
0.257,-0.026875,-0.0046875
0.258,-0.02625,-0.003125
0.259,-0.0259375,-0.0015625
0.26,-0.025625,-0.0003125
0.261,-0.0253125,0.000625
0.262,-0.0246875,0.001875
0.263,-0.024375,0.003125
0.264,-0.02375,0.00375
0.265,-0.0234375,0.005
0.266,-0.023125,0.005625
0.267,-0.0225,0.0065625
0.268,-0.0225,0.0078125
0.269,-0.021875,0.0084375
0.27,-0.021875,0.0096875
0.271,-0.0215625,0.0109375
0.272,-0.02125,0.011875
0.273,-0.02125,0.0128125
0.274,-0.0209375,0.01375
0.275,-0.020625,0.0146875
0.276,-0.020625,0.015
0.277,-0.0203125,0.015625
0.278,-0.02,0.015625
0.279,-0.0196875,0.0153125
0.28,-0.019375,0.015
0.281,-0.0190625,0.0140625
0.282,-0.01875,0.013125
0.283,-0.0184375,0.011875
0.284,-0.018125,0.0103125
0.285,-0.0178125,0.0084375
0.286,-0.0175,0.006875
0.287,-0.0171875,0.0053125
0.288,-0.0171875,0.003125
0.289,-0.016875,0.0015625
0.29,-0.0165625,-0.0003125
0.291,-0.0165625,-0.001875
0.292,-0.0165625,-0.0034375
0.293,-0.01625,-0.005
0.294,-0.01625,-0.00625
0.295,-0.01625,-0.0078125
0.296,-0.01625,-0.009375
0.297,-0.01625,-0.010625
0.298,-0.0159375,-0.0125
0.299,-0.0159375,-0.0140625
0.3,-0.0159375,-0.015625
0.301,-0.0159375,-0.0178125
0.302,-0.0159375,-0.02
0.303,-0.0159375,-0.021875
0.304,-0.0159375,-0.0240625
0.305,-0.0159375,-0.0265625
0.306,-0.0159375,-0.0284375
0.307,-0.01625,-0.030625
0.308,-0.01625,-0.0325
0.309,-0.0165625,-0.034375
0.31,-0.016875,-0.0359375
0.311,-0.0171875,-0.0371875
0.312,-0.0175,-0.0384375
0.313,-0.0178125,-0.039375
0.314,-0.018125,-0.04
0.315,-0.0184375,-0.040625
0.316,-0.01875,-0.0409375
0.317,-0.0190625,-0.0415625
0.318,-0.019375,-0.0415625
0.319,-0.0196875,-0.0421875
0.32,-0.0196875,-0.0421875
0.321,-0.0203125,-0.0425
0.322,-0.0203125,-0.0428125
0.323,-0.020625,-0.043125
0.324,-0.0209375,-0.043125
0.325,-0.0209375,-0.043125
0.326,-0.02125,-0.043125
0.327,-0.0215625,-0.0428125
0.328,-0.0215625,-0.0425
0.329,-0.021875,-0.0415625
0.33,-0.0221875,-0.0409375
0.331,-0.0221875,-0.0396875
0.332,-0.0225,-0.0384375
0.333,-0.0225,-0.0365625
0.334,-0.0225,-0.035
0.335,-0.0228125,-0.0328125
0.336,-0.0228125,-0.0309375
0.337,-0.0228125,-0.02875
0.338,-0.0228125,-0.0265625
0.339,-0.0228125,-0.0240625
0.34,-0.0228125,-0.021875
0.341,-0.0228125,-0.02
0.342,-0.0225,-0.0178125
0.343,-0.0225,-0.0159375
0.344,-0.0225,-0.01375
0.345,-0.0225,-0.011875
0.346,-0.0225,-0.0096875
0.347,-0.0225,-0.0075
0.348,-0.0225,-0.005625
0.349,-0.0228125,-0.00375
0.35,-0.0228125,-0.00125
0.351,-0.023125,0.000625
0.352,-0.023125,0.003125
0.353,-0.023125,0.005
0.354,-0.0234375,0.0075
0.355,-0.0234375,0.009375
0.356,-0.02375,0.0115625
0.357,-0.02375,0.0134375
0.358,-0.02375,0.0153125
0.359,-0.0240625,0.016875
0.36,-0.0240625,0.0184375
0.361,-0.0240625,0.0196875
0.362,-0.0240625,0.0209375
0.363,-0.0240625,0.021875
0.364,-0.0240625,0.0228125
0.365,-0.0240625,0.0234375
0.366,-0.0240625,0.024375
0.367,-0.024375,0.025
0.368,-0.024375,0.0259375
0.369,-0.024375,0.0265625
0.37,-0.0246875,0.0275
0.371,-0.0246875,0.028125
0.372,-0.025,0.029375
0.373,-0.025,0.03
0.374,-0.0253125,0.03125
0.375,-0.0253125,0.031875
0.376,-0.0253125,0.0328125
0.377,-0.0253125,0.03375
0.378,-0.0253125,0.034375
0.379,-0.0253125,0.035
0.38,-0.0253125,0.035625
0.381,-0.025,0.0359375
0.382,-0.025,0.03625
0.383,-0.025,0.03625
0.384,-0.0246875,0.0365625
0.385,-0.024375,0.0365625
0.386,-0.024375,0.0365625
0.387,-0.024375,0.036875
0.388,-0.0240625,0.036875
0.389,-0.0240625,0.0371875
0.39,-0.0240625,0.0375
0.391,-0.0240625,0.0378125
0.392,-0.0240625,0.038125
0.393,-0.0240625,0.0384375
0.394,-0.0240625,0.03875
0.395,-0.0240625,0.0390625
0.396,-0.0240625,0.039375
0.397,-0.0240625,0.0396875
0.398,-0.0240625,0.0396875
0.399,-0.0240625,0.0396875
0.4,-0.0240625,0.0396875
0.401,-0.02375,0.0396875
0.402,-0.02375,0.039375
0.403,-0.02375,0.0390625
0.404,-0.02375,0.0390625
0.405,-0.0234375,0.0384375
0.406,-0.0234375,0.038125
0.407,-0.02375,0.038125
0.408,-0.02375,0.0378125
0.409,-0.02375,0.0378125
0.41,-0.0240625,0.0378125
0.411,-0.024375,0.0378125
0.412,-0.0246875,0.0378125
0.413,-0.025,0.0378125
0.414,-0.0253125,0.0378125
0.415,-0.025625,0.0378125
0.416,-0.0259375,0.0378125
0.417,-0.02625,0.0375
0.418,-0.0265625,0.0371875
0.419,-0.026875,0.0365625
0.42,-0.0271875,0.0359375
0.421,-0.0275,0.0353125
0.422,-0.0275,0.034375
0.423,-0.028125,0.0334375
0.424,-0.028125,0.0321875
0.425,-0.0284375,0.03125
0.426,-0.02875,0.03
0.427,-0.0290625,0.02875
0.428,-0.029375,0.0278125
0.429,-0.03,0.026875
0.43,-0.0303125,0.025625
0.431,-0.0309375,0.025
0.432,-0.03125,0.0240625
0.433,-0.031875,0.023125
0.434,-0.0321875,0.0228125
0.435,-0.0328125,0.0221875
0.436,-0.033125,0.02125
0.437,-0.0334375,0.0209375
0.438,-0.03375,0.0203125
0.439,-0.0340625,0.019375
0.44,-0.034375,0.0190625
0.441,-0.0346875,0.018125
0.442,-0.0346875,0.0178125
0.443,-0.0346875,0.0171875
0.444,-0.035,0.016875
0.445,-0.035,0.0165625
0.446,-0.035,0.01625
0.447,-0.035,0.01625
0.448,-0.0353125,0.01625
0.449,-0.0353125,0.016875
0.45,-0.0353125,0.0171875
0.451,-0.035625,0.018125
0.452,-0.035625,0.01875
0.453,-0.035625,0.02
0.454,-0.035625,0.02125
0.455,-0.0359375,0.0221875
0.456,-0.0359375,0.0234375
0.457,-0.0359375,0.0246875
0.458,-0.0359375,0.025625
0.459,-0.0359375,0.0265625
0.46,-0.0359375,0.0271875
0.461,-0.0359375,0.0278125
0.462,-0.0359375,0.028125
0.463,-0.0359375,0.028125
0.464,-0.0359375,0.028125
0.465,-0.0359375,0.0278125
0.466,-0.0359375,0.0275
0.467,-0.03625,0.0271875
0.468,-0.03625,0.02625
0.469,-0.0365625,0.025625
0.47,-0.036875,0.0253125
0.471,-0.036875,0.024375
0.472,-0.0371875,0.0234375
0.473,-0.0371875,0.0228125
0.474,-0.0375,0.021875
0.475,-0.0378125,0.02125
0.476,-0.038125,0.0203125
0.477,-0.038125,0.0190625
0.478,-0.038125,0.0178125
0.479,-0.0384375,0.0165625
0.48,-0.0384375,0.0153125
0.481,-0.0384375,0.0140625
0.482,-0.0384375,0.0125
0.483,-0.0384375,0.01125
0.484,-0.0384375,0.0096875
0.485,-0.0384375,0.0084375
0.486,-0.03875,0.0075
0.487,-0.03875,0.00625
0.488,-0.03875,0.005625
0.489,-0.0390625,0.005
0.49,-0.039375,0.005
0.491,-0.039375,0.005
0.492,-0.0396875,0.0053125
0.493,-0.0396875,0.00625
0.494,-0.0396875,0.006875
0.495,-0.04,0.008125
0.496,-0.04,0.0096875
0.497,-0.04,0.0109375
0.498,-0.0403125,0.0121875
0.499,-0.0403125,0.01375
0.5,-0.0403125,0.015625
0.501,-0.0403125,0.016875
0.502,-0.0403125,0.018125
0.503,-0.0403125,0.0196875
0.504,-0.0403125,0.0209375
0.505,-0.0403125,0.021875
0.506,-0.040625,0.023125
0.507,-0.040625,0.024375
0.508,-0.04125,0.0253125
0.509,-0.04125,0.0265625
0.51,-0.041875,0.0278125
0.511,-0.0421875,0.02875
0.512,-0.0425,0.03
0.513,-0.043125,0.0309375
0.514,-0.0434375,0.0321875
0.515,-0.0440625,0.033125
0.516,-0.044375,0.0340625
0.517,-0.0446875,0.035
0.518,-0.0453125,0.035625
0.519,-0.045625,0.0359375
0.52,-0.045625,0.03625
0.521,-0.0459375,0.03625
0.522,-0.04625,0.03625
0.523,-0.04625,0.0359375
0.524,-0.0465625,0.035625
0.525,-0.0465625,0.035
0.526,-0.046875,0.0346875
0.527,-0.046875,0.0340625
0.528,-0.0471875,0.03375
0.529,-0.0471875,0.0334375
0.53,-0.0475,0.0334375
0.531,-0.0478125,0.0334375
0.532,-0.0478125,0.0334375
0.533,-0.048125,0.03375
0.534,-0.0484375,0.034375
0.535,-0.0484375,0.0346875
0.536,-0.0484375,0.0353125
0.537,-0.04875,0.03625
0.538,-0.04875,0.0365625
0.539,-0.04875,0.0371875
0.54,-0.04875,0.038125
0.541,-0.04875,0.0384375
0.542,-0.04875,0.0390625
0.543,-0.04875,0.039375
0.544,-0.04875,0.0396875
0.545,-0.0484375,0.04
0.546,-0.0484375,0.0403125
0.547,-0.0484375,0.0403125
0.548,-0.048125,0.040625
0.549,-0.048125,0.0409375
0.55,-0.048125,0.04125
0.551,-0.048125,0.0415625
0.552,-0.048125,0.041875
0.553,-0.048125,0.0421875
0.554,-0.0478125,0.0428125
0.555,-0.0478125,0.043125
0.556,-0.0478125,0.0434375
0.557,-0.0478125,0.04375
0.558,-0.0478125,0.0440625
0.559,-0.0475,0.0440625
0.56,-0.0475,0.0440625
0.561,-0.0475,0.0440625
0.562,-0.0471875,0.04375
0.563,-0.046875,0.0434375
0.564,-0.0465625,0.043125
0.565,-0.0465625,0.0428125
0.566,-0.04625,0.0421875
0.567,-0.04625,0.041875
0.568,-0.04625,0.0415625
0.569,-0.0459375,0.04125
0.57,-0.0459375,0.0409375
0.571,-0.0459375,0.040625
0.572,-0.0459375,0.040625
0.573,-0.0459375,0.040625
0.574,-0.0459375,0.040625
0.575,-0.0459375,0.0409375
0.576,-0.0459375,0.0409375
0.577,-0.0459375,0.04125
0.578,-0.0459375,0.04125
0.579,-0.0459375,0.04125
0.58,-0.045625,0.0409375
0.581,-0.045625,0.0409375
0.582,-0.045625,0.0409375
0.583,-0.045625,0.040625
0.584,-0.045625,0.0403125
0.585,-0.0453125,0.04
0.586,-0.0453125,0.0396875
0.587,-0.0453125,0.039375
0.588,-0.0453125,0.039375
0.589,-0.045625,0.03875
0.59,-0.045625,0.03875
0.591,-0.045625,0.03875
0.592,-0.045625,0.0384375
0.593,-0.045625,0.0384375
0.594,-0.0459375,0.0384375
0.595,-0.0459375,0.038125
0.596,-0.0459375,0.038125
0.597,-0.04625,0.038125
0.598,-0.04625,0.0378125
0.599,-0.04625,0.0378125
0.6,-0.04625,0.0371875
0.601,-0.04625,0.036875
0.602,-0.04625,0.0365625
0.603,-0.0459375,0.035625
0.604,-0.0459375,0.0353125
0.605,-0.0459375,0.0346875
0.606,-0.0459375,0.0340625
0.607,-0.045625,0.03375
0.608,-0.045625,0.0328125
0.609,-0.045625,0.0325
0.61,-0.0453125,0.0321875
0.611,-0.0453125,0.0315625
0.612,-0.0453125,0.03125
0.613,-0.045,0.03125
0.614,-0.045,0.0309375
0.615,-0.045,0.0309375
0.616,-0.0446875,0.0309375
0.617,-0.0446875,0.030625
0.618,-0.044375,0.030625
0.619,-0.0440625,0.030625
0.62,-0.0440625,0.0303125
0.621,-0.04375,0.03
0.622,-0.043125,0.0296875
0.623,-0.043125,0.0296875
0.624,-0.0428125,0.029375
0.625,-0.0421875,0.0290625
0.626,-0.0421875,0.02875
0.627,-0.041875,0.02875
0.628,-0.0415625,0.02875
0.629,-0.0415625,0.02875
0.63,-0.04125,0.02875
0.631,-0.0409375,0.0290625
0.632,-0.040625,0.0290625
0.633,-0.040625,0.0296875
0.634,-0.0403125,0.0296875
0.635,-0.0403125,0.03
0.636,-0.04,0.0303125
0.637,-0.04,0.0303125
0.638,-0.0396875,0.030625
0.639,-0.0396875,0.030625
0.64,-0.039375,0.0303125
0.641,-0.039375,0.0303125
0.642,-0.039375,0.0296875
0.643,-0.0390625,0.029375
0.644,-0.0390625,0.0284375
0.645,-0.0390625,0.028125
0.646,-0.03875,0.0271875
0.647,-0.03875,0.02625
0.648,-0.03875,0.025625
0.649,-0.03875,0.0246875
0.65,-0.03875,0.02375
0.651,-0.03875,0.0228125
0.652,-0.03875,0.021875
0.653,-0.0384375,0.0209375
0.654,-0.0384375,0.02
0.655,-0.0384375,0.0190625
0.656,-0.038125,0.0178125
0.657,-0.0378125,0.016875
0.658,-0.0375,0.015625
0.659,-0.0371875,0.0140625
0.66,-0.0365625,0.0125
0.661,-0.03625,0.0109375
0.662,-0.035625,0.009375
0.663,-0.0353125,0.0075
0.664,-0.034375,0.005625
0.665,-0.0340625,0.0040625
0.666,-0.033125,0.001875
0.667,-0.0328125,0.0003125
0.668,-0.031875,-0.00125
0.669,-0.0315625,-0.003125
0.67,-0.030625,-0.004375
0.671,-0.03,-0.005625
0.672,-0.029375,-0.006875
0.673,-0.02875,-0.0078125
0.674,-0.0284375,-0.00875
0.675,-0.0275,-0.0096875
0.676,-0.0271875,-0.010625
0.677,-0.02625,-0.011875
0.678,-0.0259375,-0.0128125
0.679,-0.025,-0.01375
0.68,-0.0246875,-0.015
0.681,-0.02375,-0.0165625
0.682,-0.0228125,-0.018125
0.683,-0.0225,-0.02
0.684,-0.0221875,-0.021875
0.685,-0.02125,-0.0240625
0.686,-0.0209375,-0.0259375
0.687,-0.020625,-0.0284375
0.688,-0.02,-0.0303125
0.689,-0.02,-0.0328125
0.69,-0.0196875,-0.035
0.691,-0.019375,-0.0371875
0.692,-0.019375,-0.0396875
0.693,-0.0190625,-0.0415625
0.694,-0.0190625,-0.04375
0.695,-0.0190625,-0.0459375
0.696,-0.0190625,-0.048125
0.697,-0.0190625,-0.05
0.698,-0.0190625,-0.0525
0.699,-0.0190625,-0.054375
0.7,-0.0190625,-0.056875
0.701,-0.0190625,-0.059375
0.702,-0.0190625,-0.0615625
0.703,-0.0190625,-0.0640625
0.704,-0.0190625,-0.06625
0.705,-0.019375,-0.06875
0.706,-0.019375,-0.0709375
0.707,-0.019375,-0.073125
0.708,-0.0196875,-0.0753125
0.709,-0.02,-0.076875
0.71,-0.0203125,-0.07875
0.711,-0.020625,-0.0803125
0.712,-0.0209375,-0.0815625
0.713,-0.02125,-0.0828125
0.714,-0.0215625,-0.0834375
0.715,-0.0221875,-0.084375
0.716,-0.0225,-0.0846875
0.717,-0.0225,-0.0853125
0.718,-0.0228125,-0.085625
0.719,-0.023125,-0.085625
0.72,-0.023125,-0.0859375
0.721,-0.0234375,-0.08625
0.722,-0.02375,-0.08625
0.723,-0.0240625,-0.08625
0.724,-0.0240625,-0.08625
0.725,-0.024375,-0.08625
0.726,-0.0246875,-0.08625
0.727,-0.0246875,-0.0859375
0.728,-0.025,-0.085625
0.729,-0.025625,-0.085
0.73,-0.0259375,-0.084375
0.731,-0.02625,-0.0834375
0.732,-0.0265625,-0.0825
0.733,-0.026875,-0.0815625
0.734,-0.0271875,-0.0803125
0.735,-0.0278125,-0.0790625
0.736,-0.028125,-0.0778125
0.737,-0.028125,-0.0765625
0.738,-0.0284375,-0.0753125
0.739,-0.02875,-0.07375
0.74,-0.02875,-0.0725
0.741,-0.0290625,-0.07125
0.742,-0.029375,-0.07
0.743,-0.029375,-0.06875
0.744,-0.0296875,-0.0675
0.745,-0.03,-0.06625
0.746,-0.03,-0.065
0.747,-0.0303125,-0.06375
0.748,-0.0309375,-0.0621875
0.749,-0.0309375,-0.060625
0.75,-0.03125,-0.0590625
0.751,-0.031875,-0.0575
0.752,-0.031875,-0.055625
0.753,-0.0325,-0.0540625
0.754,-0.0325,-0.0525
0.755,-0.0328125,-0.050625
0.756,-0.033125,-0.0490625
0.757,-0.033125,-0.0475
0.758,-0.0334375,-0.0459375
0.759,-0.0334375,-0.0446875
0.76,-0.0334375,-0.04375
0.761,-0.0334375,-0.0428125
0.762,-0.0334375,-0.0421875
0.763,-0.0334375,-0.0415625
0.764,-0.0334375,-0.04125
0.765,-0.0334375,-0.04125
0.766,-0.033125,-0.04125
0.767,-0.033125,-0.04125
0.768,-0.033125,-0.0415625
0.769,-0.033125,-0.041875
0.77,-0.033125,-0.0421875
0.771,-0.033125,-0.0428125
0.772,-0.033125,-0.043125
0.773,-0.033125,-0.04375
0.774,-0.0328125,-0.044375
0.775,-0.0328125,-0.045
0.776,-0.0328125,-0.045625
0.777,-0.0328125,-0.0465625
0.778,-0.0328125,-0.0471875
0.779,-0.0328125,-0.048125
0.78,-0.0325,-0.0490625
0.781,-0.0325,-0.0503125
0.782,-0.0325,-0.05125
0.783,-0.0321875,-0.0525
0.784,-0.0321875,-0.0540625
0.785,-0.0321875,-0.0553125
0.786,-0.031875,-0.056875
0.787,-0.031875,-0.0584375
0.788,-0.031875,-0.06
0.789,-0.031875,-0.0615625
0.79,-0.0321875,-0.063125
0.791,-0.0321875,-0.064375
0.792,-0.0321875,-0.06625
0.793,-0.0321875,-0.0675
0.794,-0.0321875,-0.0690625
0.795,-0.0325,-0.0703125
0.796,-0.0325,-0.0715625
0.797,-0.0328125,-0.073125
0.798,-0.0328125,-0.074375
0.799,-0.0328125,-0.0759375
0.8,-0.0328125,-0.0775
0.801,-0.0328125,-0.0790625
0.802,-0.0328125,-0.080625
0.803,-0.0328125,-0.0821875
0.804,-0.0328125,-0.0840625
0.805,-0.0328125,-0.085625
0.806,-0.0328125,-0.0871875
0.807,-0.0328125,-0.0890625
0.808,-0.033125,-0.0909375
0.809,-0.033125,-0.0925
0.81,-0.033125,-0.0940625
0.811,-0.033125,-0.095625
0.812,-0.033125,-0.0971875
0.813,-0.033125,-0.0984375
0.814,-0.033125,-0.0996875
0.815,-0.033125,-0.100625
0.816,-0.033125,-0.101875
0.817,-0.0334375,-0.1025
0.818,-0.0334375,-0.1034375
0.819,-0.0334375,-0.104375
0.82,-0.0334375,-0.1046875
0.821,-0.033125,-0.1053125
0.822,-0.033125,-0.105625
0.823,-0.033125,-0.1059375
0.824,-0.033125,-0.10625
0.825,-0.033125,-0.10625
0.826,-0.033125,-0.1059375
0.827,-0.033125,-0.105625
0.828,-0.033125,-0.105
0.829,-0.033125,-0.104375
0.83,-0.033125,-0.103125
0.831,-0.033125,-0.101875
0.832,-0.033125,-0.1003125
0.833,-0.033125,-0.09875
0.834,-0.033125,-0.0965625
0.835,-0.033125,-0.0946875
0.836,-0.033125,-0.0921875
0.837,-0.0328125,-0.0896875
0.838,-0.0328125,-0.0871875
0.839,-0.0328125,-0.0846875
0.84,-0.0325,-0.0821875
0.841,-0.0325,-0.0796875
0.842,-0.0325,-0.0771875
0.843,-0.0321875,-0.075
0.844,-0.0321875,-0.0725
0.845,-0.031875,-0.07
0.846,-0.0315625,-0.0678125
0.847,-0.0315625,-0.0653125
0.848,-0.0315625,-0.063125
0.849,-0.03125,-0.06125
0.85,-0.0309375,-0.05875
0.851,-0.030625,-0.056875
0.852,-0.030625,-0.0546875
0.853,-0.03,-0.0525
0.854,-0.03,-0.050625
0.855,-0.0296875,-0.0490625
0.856,-0.029375,-0.0475
0.857,-0.02875,-0.0459375
0.858,-0.0284375,-0.0446875
0.859,-0.028125,-0.04375
0.86,-0.0278125,-0.043125
0.861,-0.0271875,-0.0425
0.862,-0.026875,-0.0421875
0.863,-0.02625,-0.0421875
0.864,-0.0259375,-0.0421875
0.865,-0.0253125,-0.0425
0.866,-0.025,-0.0428125
0.867,-0.024375,-0.043125
0.868,-0.0240625,-0.04375
0.869,-0.02375,-0.0440625
0.87,-0.0234375,-0.045
0.871,-0.0228125,-0.0453125
0.872,-0.0225,-0.045625
0.873,-0.0221875,-0.04625
0.874,-0.021875,-0.0465625
0.875,-0.0215625,-0.046875
0.876,-0.02125,-0.0471875
0.877,-0.0209375,-0.0475
0.878,-0.0209375,-0.0478125
0.879,-0.020625,-0.048125
0.88,-0.0203125,-0.0484375
0.881,-0.02,-0.0490625
0.882,-0.02,-0.0490625
0.883,-0.0196875,-0.0496875
0.884,-0.0196875,-0.05
0.885,-0.0196875,-0.05
0.886,-0.0196875,-0.0503125
0.887,-0.0196875,-0.0503125
0.888,-0.0196875,-0.0503125
0.889,-0.0196875,-0.0503125
0.89,-0.02,-0.0496875
0.891,-0.0203125,-0.049375
0.892,-0.020625,-0.04875
0.893,-0.0209375,-0.0478125
0.894,-0.02125,-0.0471875
0.895,-0.0215625,-0.0459375
0.896,-0.021875,-0.0453125
0.897,-0.0221875,-0.0440625
0.898,-0.0225,-0.043125
0.899,-0.0228125,-0.0421875
0.9,-0.023125,-0.0415625
0.901,-0.0234375,-0.040625
0.902,-0.02375,-0.0396875
0.903,-0.02375,-0.039375
0.904,-0.0240625,-0.0390625
0.905,-0.024375,-0.03875
0.906,-0.024375,-0.03875
0.907,-0.0246875,-0.0384375
0.908,-0.025,-0.0384375
0.909,-0.025,-0.0384375
0.91,-0.0253125,-0.0384375
0.911,-0.025625,-0.03875
0.912,-0.025625,-0.03875
0.913,-0.025625,-0.03875
0.914,-0.0259375,-0.0390625
0.915,-0.0259375,-0.0390625
0.916,-0.0259375,-0.039375
0.917,-0.02625,-0.0396875
0.918,-0.02625,-0.0403125
0.919,-0.02625,-0.040625
0.92,-0.02625,-0.0415625
0.921,-0.0259375,-0.0425
0.922,-0.0259375,-0.0434375
0.923,-0.0259375,-0.0446875
0.924,-0.0259375,-0.0459375
0.925,-0.025625,-0.0475
0.926,-0.025625,-0.0490625
0.927,-0.025625,-0.050625
0.928,-0.0253125,-0.0521875
0.929,-0.0253125,-0.05375
0.93,-0.0253125,-0.0553125
0.931,-0.0253125,-0.0571875
0.932,-0.0253125,-0.0584375
0.933,-0.025625,-0.06
0.934,-0.025625,-0.06125
0.935,-0.025625,-0.0625
0.936,-0.025625,-0.06375
0.937,-0.025625,-0.065
0.938,-0.025625,-0.0659375
0.939,-0.025625,-0.0671875
0.94,-0.025625,-0.0678125
0.941,-0.025625,-0.0690625
0.942,-0.025625,-0.0696875
0.943,-0.025625,-0.070625
0.944,-0.025625,-0.07125
0.945,-0.025625,-0.0721875
0.946,-0.025625,-0.0725
0.947,-0.025625,-0.0728125
0.948,-0.025625,-0.0734375
0.949,-0.0259375,-0.0734375
0.95,-0.0259375,-0.0734375
0.951,-0.0259375,-0.0734375
0.952,-0.0259375,-0.0728125
0.953,-0.0259375,-0.0725
0.954,-0.0259375,-0.0721875
0.955,-0.0259375,-0.0715625
0.956,-0.0259375,-0.070625
0.957,-0.0259375,-0.0696875
0.958,-0.0259375,-0.0690625
0.959,-0.0259375,-0.0684375
0.96,-0.0259375,-0.0675
0.961,-0.025625,-0.0671875
0.962,-0.025625,-0.06625
0.963,-0.025625,-0.0659375
0.964,-0.025625,-0.065625
0.965,-0.025625,-0.065
0.966,-0.025625,-0.0646875
0.967,-0.025625,-0.064375
0.968,-0.025625,-0.0640625
0.969,-0.025625,-0.06375
0.97,-0.025625,-0.0634375
0.971,-0.025625,-0.063125
0.972,-0.025625,-0.063125
0.973,-0.025625,-0.0625
0.974,-0.025625,-0.0625
0.975,-0.025625,-0.0625
0.976,-0.025625,-0.0621875
0.977,-0.0253125,-0.0621875
0.978,-0.0253125,-0.0625
0.979,-0.0253125,-0.0625
0.98,-0.025,-0.063125
0.981,-0.025,-0.0634375
0.982,-0.025,-0.06375
0.983,-0.0246875,-0.064375
0.984,-0.024375,-0.0653125
0.985,-0.024375,-0.0659375
0.986,-0.02375,-0.066875
0.987,-0.02375,-0.0678125
0.988,-0.0234375,-0.068125
0.989,-0.023125,-0.0690625
0.99,-0.0228125,-0.069375
0.991,-0.0225,-0.0696875
0.992,-0.0225,-0.07
0.993,-0.021875,-0.0703125
0.994,-0.0215625,-0.0703125
0.995,-0.0215625,-0.07
0.996,-0.02125,-0.07
0.997,-0.0209375,-0.0696875
0.998,-0.020625,-0.0696875
0.999,-0.020625,-0.069375
1,-0.0203125,-0.06875
1.001,-0.0203125,-0.06875
1.002,-0.0203125,-0.0684375
1.003,-0.02,-0.0684375
1.004,-0.02,-0.068125
1.005,-0.02,-0.068125
1.006,-0.02,-0.068125
1.007,-0.02,-0.068125
1.008,-0.0203125,-0.0678125
1.009,-0.0203125,-0.0678125
1.01,-0.0203125,-0.0675
1.011,-0.020625,-0.0671875
1.012,-0.020625,-0.066875
1.013,-0.0209375,-0.0665625
1.014,-0.02125,-0.0659375
1.015,-0.0215625,-0.065625
1.016,-0.021875,-0.065
1.017,-0.0221875,-0.0646875
1.018,-0.0225,-0.0640625
1.019,-0.0228125,-0.06375
1.02,-0.023125,-0.0634375
1.021,-0.0234375,-0.0634375
1.022,-0.0240625,-0.0634375
1.023,-0.0240625,-0.0634375
1.024,-0.0246875,-0.0634375
1.025,-0.0246875,-0.06375
1.026,-0.025,-0.0640625
1.027,-0.025625,-0.064375
1.028,-0.025625,-0.0646875
1.029,-0.0259375,-0.065
1.03,-0.02625,-0.065625
1.031,-0.02625,-0.0659375
1.032,-0.0265625,-0.06625
1.033,-0.026875,-0.0665625
1.034,-0.026875,-0.0671875
1.035,-0.026875,-0.0671875
1.036,-0.026875,-0.0678125
1.037,-0.0271875,-0.068125
1.038,-0.0271875,-0.06875
1.039,-0.026875,-0.0690625
1.04,-0.026875,-0.0696875
1.041,-0.026875,-0.070625
1.042,-0.026875,-0.0715625
1.043,-0.026875,-0.0721875
1.044,-0.026875,-0.0734375
1.045,-0.0265625,-0.074375
1.046,-0.0265625,-0.075625
1.047,-0.0265625,-0.0765625
1.048,-0.0265625,-0.0775
1.049,-0.0265625,-0.0784375
1.05,-0.026875,-0.079375
1.051,-0.026875,-0.08
1.052,-0.026875,-0.080625
1.053,-0.026875,-0.08125
1.054,-0.026875,-0.0815625
1.055,-0.0271875,-0.081875
1.056,-0.0271875,-0.0821875
1.057,-0.0271875,-0.0821875
1.058,-0.0271875,-0.0821875
1.059,-0.0271875,-0.0821875
1.06,-0.0271875,-0.0821875
1.061,-0.0271875,-0.0821875
1.062,-0.026875,-0.0821875
1.063,-0.026875,-0.0821875
1.064,-0.0265625,-0.081875
1.065,-0.0265625,-0.0815625
1.066,-0.0265625,-0.0815625
1.067,-0.02625,-0.0809375
1.068,-0.02625,-0.080625
1.069,-0.0259375,-0.0796875
1.07,-0.0259375,-0.0790625
1.071,-0.0259375,-0.078125
1.072,-0.0259375,-0.076875
1.073,-0.0259375,-0.075625
1.074,-0.025625,-0.074375
1.075,-0.025625,-0.073125
1.076,-0.025625,-0.0715625
1.077,-0.025625,-0.07
1.078,-0.0253125,-0.06875
1.079,-0.0253125,-0.0671875
1.08,-0.0253125,-0.065625
1.081,-0.025,-0.064375
1.082,-0.0246875,-0.063125
1.083,-0.024375,-0.061875
1.084,-0.024375,-0.060625
1.085,-0.0240625,-0.059375
1.086,-0.0234375,-0.0584375
1.087,-0.0234375,-0.0571875
1.088,-0.023125,-0.0559375
1.089,-0.0228125,-0.055
1.09,-0.0228125,-0.05375
1.091,-0.0225,-0.0525
1.092,-0.0225,-0.05125
1.093,-0.0225,-0.0496875
1.094,-0.0221875,-0.0484375
1.095,-0.0221875,-0.046875
1.096,-0.0221875,-0.045625
1.097,-0.0221875,-0.044375
1.098,-0.0221875,-0.043125
1.099,-0.021875,-0.041875
1.1,-0.021875,-0.0409375
1.101,-0.021875,-0.04
1.102,-0.021875,-0.039375
1.103,-0.021875,-0.03875
1.104,-0.021875,-0.038125
1.105,-0.0215625,-0.0378125
1.106,-0.0215625,-0.0375
1.107,-0.0215625,-0.0371875
1.108,-0.0215625,-0.036875
1.109,-0.0215625,-0.036875
1.11,-0.0215625,-0.036875
1.111,-0.0215625,-0.0365625
1.112,-0.0215625,-0.0365625
1.113,-0.0215625,-0.0365625
1.114,-0.021875,-0.03625
1.115,-0.021875,-0.03625
1.116,-0.021875,-0.03625
1.117,-0.0221875,-0.03625
1.118,-0.0221875,-0.03625
1.119,-0.0221875,-0.03625
1.12,-0.0225,-0.03625
1.121,-0.0225,-0.0365625
1.122,-0.0228125,-0.036875
1.123,-0.0228125,-0.0371875
1.124,-0.0228125,-0.0375
1.125,-0.023125,-0.038125
1.126,-0.023125,-0.0384375
1.127,-0.023125,-0.03875
1.128,-0.023125,-0.0390625
1.129,-0.0234375,-0.0396875
1.13,-0.0234375,-0.0396875
1.131,-0.0234375,-0.04
1.132,-0.02375,-0.04
1.133,-0.02375,-0.04
1.134,-0.02375,-0.04
1.135,-0.02375,-0.04
1.136,-0.02375,-0.04
1.137,-0.02375,-0.0396875
1.138,-0.02375,-0.039375
1.139,-0.02375,-0.0390625
1.14,-0.02375,-0.0390625
1.141,-0.02375,-0.03875
1.142,-0.02375,-0.0384375
1.143,-0.02375,-0.0384375
1.144,-0.0234375,-0.038125
1.145,-0.0234375,-0.0378125
1.146,-0.0234375,-0.0375
1.147,-0.023125,-0.0371875
1.148,-0.023125,-0.0371875
1.149,-0.023125,-0.0365625
1.15,-0.023125,-0.03625
1.151,-0.0228125,-0.0359375
1.152,-0.0228125,-0.035625
1.153,-0.0228125,-0.035
1.154,-0.0225,-0.0346875
1.155,-0.0225,-0.034375
1.156,-0.0225,-0.0340625
1.157,-0.0221875,-0.03375
1.158,-0.0221875,-0.0334375
1.159,-0.021875,-0.033125
1.16,-0.0215625,-0.033125
1.161,-0.0215625,-0.033125
1.162,-0.0209375,-0.033125
1.163,-0.0209375,-0.033125
1.164,-0.020625,-0.033125
1.165,-0.0203125,-0.0334375
1.166,-0.0203125,-0.03375
1.167,-0.02,-0.0340625
1.168,-0.02,-0.034375
1.169,-0.02,-0.0346875
1.17,-0.0196875,-0.035
1.171,-0.0196875,-0.0353125
1.172,-0.019375,-0.035625
1.173,-0.019375,-0.03625
1.174,-0.019375,-0.0365625
1.175,-0.0190625,-0.036875
1.176,-0.0190625,-0.0375
1.177,-0.01875,-0.0378125
1.178,-0.01875,-0.038125
1.179,-0.01875,-0.03875
1.18,-0.0184375,-0.0396875
1.181,-0.0184375,-0.040625
1.182,-0.018125,-0.0415625
1.183,-0.018125,-0.0421875
1.184,-0.018125,-0.043125
1.185,-0.0178125,-0.044375
1.186,-0.0178125,-0.0453125
1.187,-0.0178125,-0.04625
1.188,-0.0178125,-0.0475
1.189,-0.018125,-0.0484375
1.19,-0.018125,-0.0490625
1.191,-0.018125,-0.0503125
1.192,-0.0184375,-0.0509375
1.193,-0.0184375,-0.051875
1.194,-0.01875,-0.0528125
1.195,-0.01875,-0.053125
1.196,-0.01875,-0.05375
1.197,-0.0190625,-0.0546875
1.198,-0.0190625,-0.055
1.199,-0.0190625,-0.0559375
1.2,-0.0190625,-0.05625
1.201,-0.0190625,-0.056875
1.202,-0.0190625,-0.0578125
1.203,-0.0190625,-0.058125
1.204,-0.01875,-0.0584375
1.205,-0.01875,-0.0590625
1.206,-0.01875,-0.059375
1.207,-0.01875,-0.06
1.208,-0.01875,-0.06
1.209,-0.0184375,-0.060625
1.21,-0.0184375,-0.060625
1.211,-0.0184375,-0.060625
1.212,-0.0184375,-0.0609375
1.213,-0.0184375,-0.0609375
1.214,-0.018125,-0.0609375
1.215,-0.018125,-0.0609375
1.216,-0.018125,-0.06125
1.217,-0.018125,-0.06125
1.218,-0.0178125,-0.0615625
1.219,-0.0178125,-0.061875
1.22,-0.0175,-0.0621875
1.221,-0.0175,-0.0628125
1.222,-0.0171875,-0.063125
1.223,-0.0171875,-0.0640625
1.224,-0.0171875,-0.064375
1.225,-0.016875,-0.0653125
1.226,-0.016875,-0.0659375
1.227,-0.0165625,-0.06625
1.228,-0.0165625,-0.0671875
1.229,-0.01625,-0.0675
1.23,-0.01625,-0.068125
1.231,-0.01625,-0.068125
1.232,-0.0159375,-0.06875
1.233,-0.0159375,-0.06875
1.234,-0.015625,-0.06875
1.235,-0.015625,-0.06875
1.236,-0.015625,-0.06875
1.237,-0.0153125,-0.06875
1.238,-0.0153125,-0.0684375
1.239,-0.0153125,-0.0684375
1.24,-0.015,-0.068125
1.241,-0.015,-0.0678125
1.242,-0.0146875,-0.0678125
1.243,-0.014375,-0.0675
1.244,-0.014375,-0.0671875
1.245,-0.0140625,-0.0665625
1.246,-0.01375,-0.06625
1.247,-0.01375,-0.065625
1.248,-0.0134375,-0.0646875
1.249,-0.0134375,-0.06375
1.25,-0.013125,-0.0625
1.251,-0.0128125,-0.06125
1.252,-0.0128125,-0.0596875
1.253,-0.0128125,-0.058125
1.254,-0.0125,-0.05625
1.255,-0.0125,-0.0546875
1.256,-0.0121875,-0.0525
1.257,-0.0121875,-0.050625
1.258,-0.0121875,-0.0490625
1.259,-0.011875,-0.0475
1.26,-0.011875,-0.045625
1.261,-0.011875,-0.044375
1.262,-0.011875,-0.043125
1.263,-0.011875,-0.0421875
1.264,-0.0115625,-0.04125
1.265,-0.0115625,-0.0403125
1.266,-0.0115625,-0.04
1.267,-0.0115625,-0.0396875
1.268,-0.0115625,-0.039375
1.269,-0.0115625,-0.039375
1.27,-0.0115625,-0.039375
1.271,-0.0115625,-0.039375
1.272,-0.0115625,-0.039375
1.273,-0.011875,-0.0396875
1.274,-0.011875,-0.0396875
1.275,-0.011875,-0.04
1.276,-0.011875,-0.0403125
1.277,-0.0121875,-0.0409375
1.278,-0.0121875,-0.04125
1.279,-0.0121875,-0.0421875
1.28,-0.0125,-0.0428125
1.281,-0.0125,-0.04375
1.282,-0.0125,-0.045
1.283,-0.0128125,-0.04625
1.284,-0.0128125,-0.0478125
1.285,-0.0128125,-0.049375
1.286,-0.0128125,-0.05125
1.287,-0.0128125,-0.0528125
1.288,-0.0128125,-0.055
1.289,-0.013125,-0.0565625
1.29,-0.013125,-0.0584375
1.291,-0.013125,-0.0603125
1.292,-0.013125,-0.061875
1.293,-0.013125,-0.063125
1.294,-0.013125,-0.065
1.295,-0.013125,-0.06625
1.296,-0.013125,-0.0675
1.297,-0.013125,-0.06875
1.298,-0.013125,-0.07
1.299,-0.013125,-0.07125
1.3,-0.013125,-0.0725
1.301,-0.013125,-0.0734375
1.302,-0.013125,-0.0746875
1.303,-0.013125,-0.0759375
1.304,-0.013125,-0.076875
1.305,-0.013125,-0.0778125
1.306,-0.013125,-0.0790625
1.307,-0.013125,-0.08
1.308,-0.013125,-0.0809375
1.309,-0.013125,-0.081875
1.31,-0.0128125,-0.0825
1.311,-0.0128125,-0.0828125
1.312,-0.0128125,-0.0834375
1.313,-0.0128125,-0.08375
1.314,-0.0125,-0.08375
1.315,-0.0125,-0.08375
1.316,-0.0125,-0.08375
1.317,-0.0121875,-0.0834375
1.318,-0.0121875,-0.083125
1.319,-0.011875,-0.0828125
1.32,-0.011875,-0.0821875
1.321,-0.0115625,-0.081875
1.322,-0.01125,-0.0815625
1.323,-0.01125,-0.080625
1.324,-0.0109375,-0.0803125
1.325,-0.0109375,-0.079375
1.326,-0.0109375,-0.0790625
1.327,-0.010625,-0.078125
1.328,-0.010625,-0.0771875
1.329,-0.010625,-0.07625
1.33,-0.010625,-0.075
1.331,-0.010625,-0.07375
1.332,-0.010625,-0.0725
1.333,-0.010625,-0.07125
1.334,-0.0109375,-0.0696875
1.335,-0.0109375,-0.068125
1.336,-0.0109375,-0.0665625
1.337,-0.01125,-0.0646875
1.338,-0.01125,-0.063125
1.339,-0.01125,-0.0615625
1.34,-0.0115625,-0.06
1.341,-0.0115625,-0.0584375
1.342,-0.0115625,-0.0571875
1.343,-0.011875,-0.0559375
1.344,-0.011875,-0.0546875
1.345,-0.0121875,-0.0534375
1.346,-0.0125,-0.0521875
1.347,-0.0128125,-0.05125
1.348,-0.0128125,-0.05
1.349,-0.013125,-0.0490625
1.35,-0.0134375,-0.048125
1.351,-0.01375,-0.046875
1.352,-0.01375,-0.04625
1.353,-0.014375,-0.045
1.354,-0.0146875,-0.0440625
1.355,-0.0146875,-0.043125
1.356,-0.0153125,-0.0421875
1.357,-0.0153125,-0.0415625
1.358,-0.0159375,-0.040625
1.359,-0.01625,-0.04
1.36,-0.01625,-0.039375
1.361,-0.0165625,-0.0390625
1.362,-0.016875,-0.03875
1.363,-0.016875,-0.03875
1.364,-0.0171875,-0.03875
1.365,-0.0171875,-0.03875
1.366,-0.0171875,-0.03875
1.367,-0.0175,-0.0390625
1.368,-0.0175,-0.039375
1.369,-0.0175,-0.039375
1.37,-0.0178125,-0.0396875
1.371,-0.0178125,-0.04
1.372,-0.0178125,-0.04
1.373,-0.0178125,-0.0403125
1.374,-0.018125,-0.0403125
1.375,-0.018125,-0.0403125
1.376,-0.018125,-0.040625
1.377,-0.018125,-0.040625
1.378,-0.018125,-0.040625
1.379,-0.018125,-0.0409375
1.38,-0.0178125,-0.04125
1.381,-0.0178125,-0.0415625
1.382,-0.0178125,-0.041875
1.383,-0.0178125,-0.0428125
1.384,-0.0175,-0.043125
1.385,-0.0175,-0.0440625
1.386,-0.0175,-0.045
1.387,-0.0171875,-0.0459375
1.388,-0.0171875,-0.046875
1.389,-0.016875,-0.0478125
1.39,-0.016875,-0.0490625
1.391,-0.016875,-0.0503125
1.392,-0.0165625,-0.0515625
1.393,-0.0165625,-0.0525
1.394,-0.0165625,-0.05375
1.395,-0.01625,-0.0546875
1.396,-0.01625,-0.0559375
1.397,-0.01625,-0.0571875
1.398,-0.01625,-0.0584375
1.399,-0.0159375,-0.0596875
1.4,-0.0159375,-0.0609375
1.401,-0.0159375,-0.0625
1.402,-0.0159375,-0.0640625
1.403,-0.0159375,-0.065625
1.404,-0.015625,-0.0675
1.405,-0.015625,-0.0690625
1.406,-0.015625,-0.070625
1.407,-0.015625,-0.0728125
1.408,-0.0159375,-0.074375
1.409,-0.0159375,-0.0759375
1.41,-0.0159375,-0.0778125
1.411,-0.0159375,-0.0790625
1.412,-0.01625,-0.080625
1.413,-0.01625,-0.0821875
1.414,-0.0165625,-0.083125
1.415,-0.0165625,-0.084375
1.416,-0.016875,-0.0853125
1.417,-0.016875,-0.0859375
1.418,-0.0171875,-0.086875
1.419,-0.0171875,-0.0871875
1.42,-0.0171875,-0.0878125
1.421,-0.0175,-0.088125
1.422,-0.0175,-0.0884375
1.423,-0.0175,-0.08875
1.424,-0.0175,-0.08875
1.425,-0.0175,-0.0890625
1.426,-0.0175,-0.0890625
1.427,-0.0175,-0.08875
1.428,-0.0175,-0.08875
1.429,-0.0175,-0.0884375
1.43,-0.0175,-0.088125
1.431,-0.0171875,-0.0875
1.432,-0.0171875,-0.0871875
1.433,-0.0171875,-0.0865625
1.434,-0.0171875,-0.085625
1.435,-0.0171875,-0.0846875
1.436,-0.0171875,-0.0840625
1.437,-0.0171875,-0.083125
1.438,-0.0171875,-0.0821875
1.439,-0.0171875,-0.08125
1.44,-0.016875,-0.080625
1.441,-0.016875,-0.0796875
1.442,-0.016875,-0.079375
1.443,-0.0165625,-0.07875
1.444,-0.0165625,-0.078125
1.445,-0.01625,-0.078125
1.446,-0.01625,-0.0775
1.447,-0.0159375,-0.0775
1.448,-0.0159375,-0.0775
1.449,-0.015625,-0.0775
1.45,-0.015625,-0.0775
1.451,-0.0153125,-0.0775
1.452,-0.0153125,-0.0778125
1.453,-0.015,-0.0778125
1.454,-0.015,-0.078125
1.455,-0.015,-0.078125
1.456,-0.0146875,-0.0784375
1.457,-0.0146875,-0.07875
1.458,-0.0146875,-0.0790625
1.459,-0.0146875,-0.0796875
1.46,-0.014375,-0.08
1.461,-0.014375,-0.0803125
1.462,-0.014375,-0.08125
1.463,-0.014375,-0.081875
1.464,-0.014375,-0.0828125
1.465,-0.014375,-0.0834375
1.466,-0.014375,-0.084375
1.467,-0.0140625,-0.0853125
1.468,-0.0140625,-0.08625
1.469,-0.0140625,-0.086875
1.47,-0.0140625,-0.0878125
1.471,-0.0140625,-0.08875
1.472,-0.01375,-0.089375
1.473,-0.01375,-0.0896875
1.474,-0.01375,-0.0903125
1.475,-0.01375,-0.090625
1.476,-0.01375,-0.0909375
1.477,-0.0134375,-0.09125
1.478,-0.0134375,-0.09125
1.479,-0.0134375,-0.0915625
1.48,-0.0134375,-0.091875
1.481,-0.0134375,-0.091875
1.482,-0.013125,-0.0921875
1.483,-0.013125,-0.0921875
1.484,-0.0134375,-0.0925
1.485,-0.0134375,-0.093125
1.486,-0.0134375,-0.093125
1.487,-0.0134375,-0.0934375
1.488,-0.0134375,-0.09375
1.489,-0.0134375,-0.09375
1.49,-0.0134375,-0.0940625
1.491,-0.01375,-0.094375
1.492,-0.01375,-0.094375
1.493,-0.01375,-0.094375
1.494,-0.01375,-0.094375
1.495,-0.0140625,-0.094375
1.496,-0.0140625,-0.094375
1.497,-0.0140625,-0.0940625
1.498,-0.014375,-0.09375
1.499,-0.014375,-0.09375
1.5,-0.014375,-0.0934375
1.501,-0.014375,-0.0934375
1.502,-0.014375,-0.093125
1.503,-0.0146875,-0.0928125
1.504,-0.0146875,-0.0928125
1.505,-0.0146875,-0.0921875
1.506,-0.0146875,-0.0921875
1.507,-0.015,-0.0915625
1.508,-0.015,-0.0915625
1.509,-0.015,-0.0909375
1.51,-0.0153125,-0.090625
1.511,-0.0153125,-0.09
1.512,-0.0153125,-0.0896875
1.513,-0.015625,-0.0890625
1.514,-0.015625,-0.088125
1.515,-0.015625,-0.0871875
1.516,-0.015625,-0.086875
1.517,-0.015625,-0.0859375
1.518,-0.015625,-0.085
1.519,-0.015625,-0.0846875
1.52,-0.015625,-0.08375
1.521,-0.0153125,-0.0834375
1.522,-0.0153125,-0.0828125
1.523,-0.0153125,-0.0825
1.524,-0.015,-0.0821875
1.525,-0.0146875,-0.081875
1.526,-0.014375,-0.0815625
1.527,-0.014375,-0.0815625
1.528,-0.0140625,-0.08125
1.529,-0.01375,-0.08125
1.53,-0.01375,-0.08125
1.531,-0.0134375,-0.0809375
1.532,-0.013125,-0.0809375
1.533,-0.013125,-0.0809375
1.534,-0.0128125,-0.080625
1.535,-0.0128125,-0.080625
1.536,-0.0125,-0.080625
1.537,-0.0125,-0.0803125
1.538,-0.0125,-0.0803125
1.539,-0.0121875,-0.0803125
1.54,-0.0121875,-0.0803125
1.541,-0.011875,-0.0803125
1.542,-0.011875,-0.0803125
1.543,-0.011875,-0.0803125
1.544,-0.0115625,-0.080625
1.545,-0.0115625,-0.080625
1.546,-0.01125,-0.0809375
1.547,-0.01125,-0.0809375
1.548,-0.01125,-0.0809375
1.549,-0.0109375,-0.0809375
1.55,-0.0109375,-0.080625
1.551,-0.0109375,-0.080625
1.552,-0.0109375,-0.0803125
1.553,-0.01125,-0.08
1.554,-0.01125,-0.0796875
1.555,-0.01125,-0.079375
1.556,-0.01125,-0.07875
1.557,-0.01125,-0.0784375
1.558,-0.01125,-0.078125
1.559,-0.01125,-0.0775
1.56,-0.01125,-0.0771875
1.561,-0.01125,-0.076875
1.562,-0.01125,-0.0765625
1.563,-0.0109375,-0.07625
1.564,-0.0109375,-0.07625
1.565,-0.0109375,-0.07625
1.566,-0.010625,-0.07625
1.567,-0.010625,-0.07625
1.568,-0.010625,-0.0765625
1.569,-0.010625,-0.0765625
1.57,-0.010625,-0.0771875
1.571,-0.010625,-0.0775
1.572,-0.0103125,-0.0778125
1.573,-0.0103125,-0.0784375
1.574,-0.0103125,-0.07875
1.575,-0.0103125,-0.0796875
1.576,-0.0103125,-0.08
1.577,-0.0103125,-0.0809375
1.578,-0.0103125,-0.08125
1.579,-0.01,-0.0821875
1.58,-0.01,-0.083125
1.581,-0.01,-0.08375
1.582,-0.0096875,-0.0846875
1.583,-0.0096875,-0.0853125
1.584,-0.009375,-0.08625
1.585,-0.009375,-0.0871875
1.586,-0.009375,-0.0875
1.587,-0.0090625,-0.0884375
1.588,-0.0090625,-0.08875
1.589,-0.00875,-0.0890625
1.59,-0.00875,-0.089375
1.591,-0.00875,-0.089375
1.592,-0.00875,-0.089375
1.593,-0.00875,-0.089375
1.594,-0.00875,-0.0890625
1.595,-0.0090625,-0.08875
1.596,-0.0090625,-0.088125
1.597,-0.0090625,-0.0878125
1.598,-0.0090625,-0.086875
1.599,-0.0090625,-0.0865625
1.6,-0.00875,-0.085625
1.601,-0.00875,-0.085
1.602,-0.00875,-0.0840625
1.603,-0.00875,-0.0834375
1.604,-0.00875,-0.083125
1.605,-0.0084375,-0.0821875
1.606,-0.0084375,-0.08125
1.607,-0.0084375,-0.0809375
1.608,-0.0084375,-0.08
1.609,-0.0084375,-0.0790625
1.61,-0.0084375,-0.07875
1.611,-0.0084375,-0.078125
1.612,-0.0084375,-0.0771875
1.613,-0.0084375,-0.07625
1.614,-0.0084375,-0.0759375
1.615,-0.0084375,-0.075
1.616,-0.00875,-0.0746875
1.617,-0.00875,-0.074375
1.618,-0.00875,-0.0740625
1.619,-0.0090625,-0.0740625
1.62,-0.0090625,-0.0740625
1.621,-0.0090625,-0.0740625
1.622,-0.0090625,-0.0746875
1.623,-0.0090625,-0.075
1.624,-0.0090625,-0.0759375
1.625,-0.0090625,-0.076875
1.626,-0.0090625,-0.0778125
1.627,-0.0090625,-0.0790625
1.628,-0.0090625,-0.08
1.629,-0.0090625,-0.08125
1.63,-0.009375,-0.0825
1.631,-0.009375,-0.08375
1.632,-0.009375,-0.085
1.633,-0.009375,-0.08625
1.634,-0.0096875,-0.0875
1.635,-0.0096875,-0.0884375
1.636,-0.0096875,-0.0896875
1.637,-0.01,-0.090625
1.638,-0.01,-0.0915625
1.639,-0.01,-0.0925
1.64,-0.01,-0.0934375
1.641,-0.01,-0.0946875
1.642,-0.01,-0.0953125
1.643,-0.01,-0.09625
1.644,-0.01,-0.0971875
1.645,-0.01,-0.0978125
1.646,-0.01,-0.09875
1.647,-0.01,-0.0996875
1.648,-0.01,-0.1
1.649,-0.01,-0.1009375
1.65,-0.0103125,-0.10125
1.651,-0.0103125,-0.1015625
1.652,-0.0103125,-0.101875
1.653,-0.010625,-0.1021875
1.654,-0.010625,-0.1021875
1.655,-0.010625,-0.1021875
1.656,-0.0109375,-0.1021875
1.657,-0.0109375,-0.1021875
1.658,-0.01125,-0.1021875
1.659,-0.01125,-0.1021875
1.66,-0.01125,-0.1021875
1.661,-0.01125,-0.1021875
1.662,-0.0115625,-0.1021875
1.663,-0.0115625,-0.1025
1.664,-0.0115625,-0.1025
1.665,-0.0115625,-0.1028125
1.666,-0.0115625,-0.103125
1.667,-0.0115625,-0.103125
1.668,-0.011875,-0.10375
1.669,-0.011875,-0.10375
1.67,-0.011875,-0.1040625
1.671,-0.0121875,-0.104375
1.672,-0.0121875,-0.1046875
1.673,-0.0125,-0.1046875
1.674,-0.0128125,-0.1046875
1.675,-0.0128125,-0.1046875
1.676,-0.013125,-0.1046875
1.677,-0.013125,-0.1046875
1.678,-0.013125,-0.1046875
1.679,-0.0134375,-0.104375
1.68,-0.0134375,-0.104375
1.681,-0.0134375,-0.104375
1.682,-0.0134375,-0.104375
1.683,-0.0134375,-0.104375
1.684,-0.0134375,-0.1040625
1.685,-0.0134375,-0.1040625
1.686,-0.013125,-0.10375
1.687,-0.013125,-0.1034375
1.688,-0.013125,-0.103125
1.689,-0.0128125,-0.1021875
1.69,-0.0128125,-0.101875
1.691,-0.0128125,-0.1009375
1.692,-0.0125,-0.1
1.693,-0.0125,-0.0990625
1.694,-0.0125,-0.0978125
1.695,-0.0125,-0.0965625
1.696,-0.0121875,-0.0953125
1.697,-0.0121875,-0.0940625
1.698,-0.0121875,-0.0928125
1.699,-0.011875,-0.09125
1.7,-0.011875,-0.09
1.701,-0.0115625,-0.08875
1.702,-0.01125,-0.0875
1.703,-0.0109375,-0.08625
1.704,-0.0109375,-0.0853125
1.705,-0.010625,-0.084375
1.706,-0.0103125,-0.0834375
1.707,-0.01,-0.0825
1.708,-0.0096875,-0.081875
1.709,-0.0096875,-0.0809375
1.71,-0.0090625,-0.0803125
1.711,-0.0090625,-0.079375
1.712,-0.00875,-0.07875
1.713,-0.00875,-0.0778125
1.714,-0.00875,-0.0771875
1.715,-0.0084375,-0.07625
1.716,-0.0084375,-0.0759375
1.717,-0.008125,-0.075
1.718,-0.008125,-0.0740625
1.719,-0.008125,-0.07375
1.72,-0.008125,-0.0734375
1.721,-0.008125,-0.0728125
1.722,-0.0078125,-0.0725
1.723,-0.0078125,-0.071875
1.724,-0.0078125,-0.0715625
1.725,-0.0078125,-0.07125
1.726,-0.0078125,-0.0709375
1.727,-0.0078125,-0.070625
1.728,-0.0078125,-0.07
1.729,-0.008125,-0.0696875
1.73,-0.008125,-0.069375
1.731,-0.0084375,-0.0684375
1.732,-0.00875,-0.068125
1.733,-0.0090625,-0.0671875
1.734,-0.0090625,-0.06625
1.735,-0.009375,-0.065625
1.736,-0.0096875,-0.0646875
1.737,-0.01,-0.06375
1.738,-0.0103125,-0.0628125
1.739,-0.0109375,-0.061875
1.74,-0.0109375,-0.060625
1.741,-0.01125,-0.06
1.742,-0.0115625,-0.0590625
1.743,-0.011875,-0.058125
1.744,-0.011875,-0.0571875
1.745,-0.0125,-0.0565625
1.746,-0.0125,-0.055625
1.747,-0.0128125,-0.055
1.748,-0.013125,-0.0540625
1.749,-0.013125,-0.053125
1.75,-0.01375,-0.0525
1.751,-0.01375,-0.0515625
1.752,-0.0140625,-0.050625
1.753,-0.014375,-0.0496875
1.754,-0.014375,-0.04875
1.755,-0.0146875,-0.0478125
1.756,-0.0146875,-0.046875
1.757,-0.015,-0.0459375
1.758,-0.015,-0.045
1.759,-0.015,-0.0440625
1.76,-0.015,-0.0434375
1.761,-0.0146875,-0.0428125
1.762,-0.0146875,-0.041875
1.763,-0.0146875,-0.04125
1.764,-0.014375,-0.040625
1.765,-0.014375,-0.0403125
1.766,-0.0140625,-0.0396875
1.767,-0.01375,-0.0396875
1.768,-0.01375,-0.039375
1.769,-0.0134375,-0.0390625
1.77,-0.013125,-0.0390625
1.771,-0.013125,-0.0390625
1.772,-0.0128125,-0.039375
1.773,-0.0128125,-0.039375
1.774,-0.0125,-0.0396875
1.775,-0.0125,-0.04
1.776,-0.0125,-0.0403125
1.777,-0.0121875,-0.04125
1.778,-0.0121875,-0.0415625
1.779,-0.011875,-0.0425
1.78,-0.011875,-0.0434375
1.781,-0.0115625,-0.0446875
1.782,-0.01125,-0.0459375
1.783,-0.01125,-0.0471875
1.784,-0.0109375,-0.0490625
1.785,-0.0109375,-0.050625
1.786,-0.0103125,-0.0528125
1.787,-0.0103125,-0.054375
1.788,-0.01,-0.0565625
1.789,-0.0096875,-0.05875
1.79,-0.0096875,-0.0609375
1.791,-0.009375,-0.0634375
1.792,-0.009375,-0.065625
1.793,-0.009375,-0.0678125
1.794,-0.0090625,-0.0703125
1.795,-0.0090625,-0.0725
1.796,-0.0090625,-0.075
1.797,-0.0090625,-0.0771875
1.798,-0.0090625,-0.079375
1.799,-0.00875,-0.081875
1.8,-0.00875,-0.08375
1.801,-0.00875,-0.08625
1.802,-0.00875,-0.0884375
1.803,-0.00875,-0.0903125
1.804,-0.00875,-0.0928125
1.805,-0.00875,-0.0946875
1.806,-0.00875,-0.096875
1.807,-0.00875,-0.0984375
1.808,-0.00875,-0.100625
1.809,-0.00875,-0.1021875
1.81,-0.00875,-0.10375
1.811,-0.00875,-0.1053125
1.812,-0.00875,-0.1065625
1.813,-0.00875,-0.1075
1.814,-0.00875,-0.1084375
1.815,-0.00875,-0.1090625
1.816,-0.0090625,-0.109375
1.817,-0.0090625,-0.11
1.818,-0.009375,-0.11
1.819,-0.009375,-0.11
1.82,-0.0096875,-0.11
1.821,-0.0096875,-0.11
1.822,-0.01,-0.1096875
1.823,-0.01,-0.1090625
1.824,-0.0103125,-0.10875
1.825,-0.0103125,-0.1084375
1.826,-0.0103125,-0.1075
1.827,-0.010625,-0.1065625
1.828,-0.010625,-0.1059375
1.829,-0.010625,-0.105
1.83,-0.010625,-0.1040625
1.831,-0.010625,-0.103125
1.832,-0.010625,-0.101875
1.833,-0.010625,-0.100625
1.834,-0.0109375,-0.099375
1.835,-0.0109375,-0.0978125
1.836,-0.0109375,-0.0965625
1.837,-0.0109375,-0.095
1.838,-0.010625,-0.09375
1.839,-0.010625,-0.0921875
1.84,-0.010625,-0.0909375
1.841,-0.010625,-0.0896875
1.842,-0.010625,-0.0884375
1.843,-0.010625,-0.0871875
1.844,-0.010625,-0.0859375
1.845,-0.010625,-0.085
1.846,-0.0103125,-0.0840625
1.847,-0.0103125,-0.0828125
1.848,-0.0103125,-0.0821875
1.849,-0.0103125,-0.08125
1.85,-0.0103125,-0.0803125
1.851,-0.0103125,-0.079375
1.852,-0.0103125,-0.07875
1.853,-0.0103125,-0.0778125
1.854,-0.0103125,-0.0771875
1.855,-0.0103125,-0.07625
1.856,-0.0103125,-0.0753125
1.857,-0.0103125,-0.075
1.858,-0.0103125,-0.0740625
1.859,-0.0103125,-0.0734375
1.86,-0.0103125,-0.073125
1.861,-0.0103125,-0.0721875
1.862,-0.01,-0.071875
1.863,-0.01,-0.0715625
1.864,-0.0096875,-0.0709375
1.865,-0.0096875,-0.070625
1.866,-0.0096875,-0.0703125
1.867,-0.009375,-0.07
1.868,-0.0090625,-0.069375
1.869,-0.0090625,-0.0690625
1.87,-0.0090625,-0.0684375
1.871,-0.00875,-0.068125
1.872,-0.00875,-0.0675
1.873,-0.00875,-0.0671875
1.874,-0.00875,-0.06625
1.875,-0.00875,-0.065625
1.876,-0.0084375,-0.0653125
1.877,-0.0084375,-0.065
1.878,-0.0084375,-0.064375
1.879,-0.0084375,-0.0640625
1.88,-0.0084375,-0.06375
1.881,-0.0084375,-0.0634375
1.882,-0.0084375,-0.0634375
1.883,-0.0084375,-0.0634375
1.884,-0.0084375,-0.06375
1.885,-0.0084375,-0.0640625
1.886,-0.008125,-0.0646875
1.887,-0.008125,-0.065
1.888,-0.008125,-0.0659375
1.889,-0.0078125,-0.0665625
1.89,-0.0078125,-0.0675
1.891,-0.0078125,-0.0684375
1.892,-0.0078125,-0.069375
1.893,-0.0078125,-0.0703125
1.894,-0.0078125,-0.0715625
1.895,-0.008125,-0.0721875
1.896,-0.008125,-0.0734375
1.897,-0.0084375,-0.0746875
1.898,-0.0084375,-0.075625
1.899,-0.0084375,-0.076875
1.9,-0.00875,-0.078125
1.901,-0.00875,-0.079375
1.902,-0.0090625,-0.080625
1.903,-0.0090625,-0.081875
1.904,-0.0090625,-0.083125
1.905,-0.009375,-0.0846875
1.906,-0.009375,-0.08625
1.907,-0.009375,-0.0878125
1.908,-0.009375,-0.0890625
1.909,-0.0096875,-0.0909375
1.91,-0.0096875,-0.0921875
1.911,-0.0096875,-0.09375
1.912,-0.0096875,-0.0953125
1.913,-0.0096875,-0.0965625
1.914,-0.01,-0.0978125
1.915,-0.01,-0.0990625
1.916,-0.01,-0.1003125
1.917,-0.0103125,-0.10125
1.918,-0.0103125,-0.1025
1.919,-0.0103125,-0.1034375
1.92,-0.010625,-0.104375
1.921,-0.010625,-0.105625
1.922,-0.0109375,-0.1065625
1.923,-0.0109375,-0.1075
1.924,-0.0109375,-0.1084375
1.925,-0.0109375,-0.1096875
1.926,-0.0109375,-0.1103125
1.927,-0.0109375,-0.1115625
1.928,-0.0109375,-0.1121875
1.929,-0.0109375,-0.113125
1.93,-0.0109375,-0.11375
1.931,-0.0109375,-0.114375
1.932,-0.0109375,-0.115
1.933,-0.0109375,-0.115
1.934,-0.010625,-0.115625
1.935,-0.010625,-0.115625
1.936,-0.010625,-0.1153125
1.937,-0.010625,-0.1153125
1.938,-0.0103125,-0.115
1.939,-0.0103125,-0.1146875
1.94,-0.0103125,-0.1140625
1.941,-0.01,-0.11375
1.942,-0.01,-0.113125
1.943,-0.0096875,-0.1125
1.944,-0.0096875,-0.111875
1.945,-0.009375,-0.11125
1.946,-0.0090625,-0.1103125
1.947,-0.0090625,-0.109375
1.948,-0.00875,-0.10875
1.949,-0.00875,-0.1078125
1.95,-0.0084375,-0.1065625
1.951,-0.008125,-0.1053125
1.952,-0.008125,-0.104375
1.953,-0.0078125,-0.103125
1.954,-0.0078125,-0.101875
1.955,-0.0078125,-0.1003125
1.956,-0.0075,-0.0990625
1.957,-0.0075,-0.0978125
1.958,-0.0075,-0.09625
1.959,-0.0075,-0.095
1.96,-0.0078125,-0.09375
1.961,-0.0078125,-0.0928125
1.962,-0.0078125,-0.091875
1.963,-0.0078125,-0.0909375
1.964,-0.008125,-0.090625
1.965,-0.008125,-0.0903125
1.966,-0.008125,-0.09
1.967,-0.0084375,-0.0903125
1.968,-0.0084375,-0.090625
1.969,-0.00875,-0.0909375
1.97,-0.00875,-0.09125
1.971,-0.00875,-0.0921875
1.972,-0.0090625,-0.093125
1.973,-0.0090625,-0.09375
1.974,-0.0090625,-0.095
1.975,-0.009375,-0.0959375
1.976,-0.009375,-0.096875
1.977,-0.0096875,-0.098125
1.978,-0.0096875,-0.099375
1.979,-0.01,-0.1003125
1.98,-0.0103125,-0.1015625
1.981,-0.0103125,-0.1028125
1.982,-0.010625,-0.1040625
1.983,-0.0109375,-0.1053125
1.984,-0.0109375,-0.1065625
1.985,-0.01125,-0.1078125
1.986,-0.01125,-0.1090625
1.987,-0.01125,-0.1103125
1.988,-0.0115625,-0.1115625
1.989,-0.0115625,-0.1128125
1.99,-0.011875,-0.11375
1.991,-0.011875,-0.115
1.992,-0.011875,-0.115625
1.993,-0.011875,-0.116875
1.994,-0.011875,-0.1171875
1.995,-0.011875,-0.1178125
1.996,-0.0121875,-0.118125
1.997,-0.0121875,-0.1184375
1.998,-0.0121875,-0.1184375
1.999,-0.0121875,-0.118125
2,-0.0121875,-0.1178125
2.001,-0.0125,-0.1175
2.002,-0.0125,-0.1171875
2.003,-0.0125,-0.11625
2.004,-0.0128125,-0.1153125
2.005,-0.0128125,-0.1146875
2.006,-0.0128125,-0.11375
2.007,-0.013125,-0.1125
2.008,-0.013125,-0.1115625
2.009,-0.013125,-0.110625
2.01,-0.0134375,-0.109375
2.011,-0.0134375,-0.1084375
2.012,-0.0134375,-0.1071875
2.013,-0.01375,-0.1059375
2.014,-0.01375,-0.105
2.015,-0.01375,-0.1040625
2.016,-0.01375,-0.1028125
2.017,-0.0140625,-0.1021875
2.018,-0.0140625,-0.10125
2.019,-0.014375,-0.1003125
2.02,-0.014375,-0.0996875
2.021,-0.014375,-0.09875
2.022,-0.014375,-0.0984375
2.023,-0.0146875,-0.098125
2.024,-0.0146875,-0.0975
2.025,-0.015,-0.0971875
2.026,-0.015,-0.0971875
2.027,-0.015,-0.0971875
2.028,-0.015,-0.096875
2.029,-0.0153125,-0.096875
2.03,-0.0153125,-0.096875
2.031,-0.0153125,-0.096875
2.032,-0.015625,-0.0971875
2.033,-0.015625,-0.0971875
2.034,-0.015625,-0.0971875
2.035,-0.0159375,-0.0971875
2.036,-0.0159375,-0.0975
2.037,-0.0159375,-0.0975
2.038,-0.01625,-0.0978125
2.039,-0.01625,-0.0978125
2.04,-0.01625,-0.0978125
2.041,-0.01625,-0.098125
2.042,-0.01625,-0.098125
2.043,-0.01625,-0.0984375
2.044,-0.01625,-0.0984375
2.045,-0.01625,-0.0984375
2.046,-0.01625,-0.0984375
2.047,-0.01625,-0.0984375
2.048,-0.01625,-0.0984375
2.049,-0.01625,-0.0978125
2.05,-0.01625,-0.0978125
2.051,-0.0159375,-0.0971875
2.052,-0.0159375,-0.096875
2.053,-0.0159375,-0.0959375
2.054,-0.0159375,-0.095
2.055,-0.015625,-0.094375
2.056,-0.015625,-0.0934375
2.057,-0.015625,-0.0925
2.058,-0.0153125,-0.09125
2.059,-0.0153125,-0.0903125
2.06,-0.0153125,-0.089375
2.061,-0.015,-0.08875
2.062,-0.015,-0.0878125
2.063,-0.015,-0.086875
2.064,-0.0146875,-0.0865625
2.065,-0.0146875,-0.08625
2.066,-0.014375,-0.085625
2.067,-0.014375,-0.085625
2.068,-0.0140625,-0.0853125
2.069,-0.01375,-0.0853125
2.07,-0.01375,-0.085625
2.071,-0.0134375,-0.085625
2.072,-0.013125,-0.085625
2.073,-0.013125,-0.0859375
2.074,-0.013125,-0.08625
2.075,-0.0128125,-0.0865625
2.076,-0.0125,-0.086875
2.077,-0.0125,-0.0871875
2.078,-0.0121875,-0.0878125
2.079,-0.011875,-0.088125
2.08,-0.011875,-0.08875
2.081,-0.01125,-0.0890625
2.082,-0.01125,-0.089375
2.083,-0.0109375,-0.09
2.084,-0.010625,-0.0909375
2.085,-0.010625,-0.09125
2.086,-0.01,-0.0915625
2.087,-0.01,-0.0925
2.088,-0.009375,-0.0928125
2.089,-0.009375,-0.093125
2.09,-0.0090625,-0.09375
2.091,-0.00875,-0.09375
2.092,-0.00875,-0.0940625
2.093,-0.008125,-0.094375
2.094,-0.008125,-0.094375
2.095,-0.0078125,-0.094375
2.096,-0.0075,-0.0940625
2.097,-0.0075,-0.0940625
2.098,-0.0071875,-0.09375
2.099,-0.006875,-0.0934375
2.1,-0.006875,-0.093125
2.101,-0.006875,-0.0925
2.102,-0.0065625,-0.0921875
2.103,-0.00625,-0.091875
2.104,-0.00625,-0.09125
2.105,-0.00625,-0.090625
2.106,-0.0059375,-0.0903125
2.107,-0.0059375,-0.089375
2.108,-0.0059375,-0.08875
2.109,-0.0059375,-0.088125
2.11,-0.0059375,-0.0871875
2.111,-0.0059375,-0.0865625
2.112,-0.0059375,-0.0859375
2.113,-0.0059375,-0.0853125
2.114,-0.0059375,-0.084375
2.115,-0.0059375,-0.0834375
2.116,-0.0059375,-0.083125
2.117,-0.00625,-0.0828125
2.118,-0.00625,-0.081875
2.119,-0.00625,-0.0815625
2.12,-0.0065625,-0.0815625
2.121,-0.0065625,-0.08125
2.122,-0.0065625,-0.08125
2.123,-0.0065625,-0.08125
2.124,-0.0065625,-0.08125
2.125,-0.006875,-0.08125
2.126,-0.006875,-0.0815625
2.127,-0.006875,-0.0815625
2.128,-0.006875,-0.0815625
2.129,-0.0071875,-0.081875
2.13,-0.0071875,-0.081875
2.131,-0.0071875,-0.081875
2.132,-0.0075,-0.081875
2.133,-0.0075,-0.081875
2.134,-0.0075,-0.081875
2.135,-0.0078125,-0.0815625
2.136,-0.0078125,-0.0815625
2.137,-0.0078125,-0.0815625
2.138,-0.0078125,-0.08125
2.139,-0.0078125,-0.08125
2.14,-0.0078125,-0.08125
2.141,-0.0078125,-0.08125
2.142,-0.0078125,-0.08125
2.143,-0.0078125,-0.08125
2.144,-0.0075,-0.08125
2.145,-0.0078125,-0.08125
2.146,-0.0078125,-0.08125
2.147,-0.0078125,-0.0815625
2.148,-0.0078125,-0.0815625
2.149,-0.0078125,-0.0815625
2.15,-0.0078125,-0.0815625
2.151,-0.008125,-0.0815625
2.152,-0.008125,-0.0815625
2.153,-0.008125,-0.0815625
2.154,-0.0084375,-0.0815625
2.155,-0.0084375,-0.08125
2.156,-0.00875,-0.0809375
2.157,-0.00875,-0.0809375
2.158,-0.00875,-0.0809375
2.159,-0.0090625,-0.080625
2.16,-0.0090625,-0.0803125
2.161,-0.009375,-0.0803125
2.162,-0.009375,-0.0803125
2.163,-0.0096875,-0.08
2.164,-0.0096875,-0.08
2.165,-0.0096875,-0.08
2.166,-0.01,-0.08
2.167,-0.01,-0.08
2.168,-0.01,-0.08
2.169,-0.0103125,-0.0796875
2.17,-0.0103125,-0.0796875
2.171,-0.010625,-0.079375
2.172,-0.010625,-0.0790625
2.173,-0.0109375,-0.0790625
2.174,-0.01125,-0.07875
2.175,-0.01125,-0.078125
2.176,-0.0115625,-0.0778125
2.177,-0.0115625,-0.0775
2.178,-0.0115625,-0.076875
2.179,-0.011875,-0.076875
2.18,-0.011875,-0.07625
2.181,-0.011875,-0.0759375
2.182,-0.0121875,-0.075625
2.183,-0.0121875,-0.075625
2.184,-0.0121875,-0.0753125
2.185,-0.0121875,-0.075
2.186,-0.0121875,-0.075
2.187,-0.0121875,-0.0746875
2.188,-0.0121875,-0.0746875
2.189,-0.0125,-0.0746875
2.19,-0.0125,-0.074375
2.191,-0.0125,-0.074375
2.192,-0.0125,-0.074375
2.193,-0.0125,-0.0740625
2.194,-0.0128125,-0.0740625
2.195,-0.0128125,-0.0740625
2.196,-0.013125,-0.0740625
2.197,-0.013125,-0.074375
2.198,-0.013125,-0.074375
2.199,-0.0134375,-0.074375
2.2,-0.0134375,-0.0746875
2.201,-0.01375,-0.0753125
2.202,-0.01375,-0.075625
2.203,-0.01375,-0.0765625
2.204,-0.0140625,-0.076875
2.205,-0.0140625,-0.0778125
2.206,-0.0140625,-0.0784375
2.207,-0.014375,-0.079375
2.208,-0.014375,-0.0803125
2.209,-0.0146875,-0.0809375
2.21,-0.0146875,-0.0821875
2.211,-0.015,-0.0828125
2.212,-0.0153125,-0.0840625
2.213,-0.015625,-0.0846875
2.214,-0.015625,-0.0859375
2.215,-0.0159375,-0.086875
2.216,-0.01625,-0.0878125
2.217,-0.01625,-0.08875
2.218,-0.0165625,-0.0896875
2.219,-0.016875,-0.090625
2.22,-0.016875,-0.091875
2.221,-0.0171875,-0.0928125
2.222,-0.0171875,-0.09375
2.223,-0.0175,-0.0946875
2.224,-0.0178125,-0.0959375
2.225,-0.018125,-0.0971875
2.226,-0.018125,-0.098125
2.227,-0.0184375,-0.099375
2.228,-0.01875,-0.1003125
2.229,-0.01875,-0.10125
2.23,-0.0190625,-0.1021875
2.231,-0.0190625,-0.1034375
2.232,-0.019375,-0.1040625
2.233,-0.019375,-0.105
2.234,-0.0196875,-0.1059375
2.235,-0.0196875,-0.10625
2.236,-0.0196875,-0.106875
2.237,-0.02,-0.1075
2.238,-0.02,-0.1084375
2.239,-0.02,-0.10875
2.24,-0.0203125,-0.1090625
2.241,-0.0203125,-0.1096875
2.242,-0.0203125,-0.1096875
2.243,-0.0203125,-0.11
2.244,-0.0203125,-0.110625
2.245,-0.0203125,-0.110625
2.246,-0.02,-0.1109375
2.247,-0.02,-0.1109375
2.248,-0.02,-0.1109375
2.249,-0.0196875,-0.1109375
2.25,-0.0196875,-0.110625
2.251,-0.019375,-0.110625
2.252,-0.019375,-0.1103125
2.253,-0.0190625,-0.11
2.254,-0.01875,-0.1096875
2.255,-0.01875,-0.109375
2.256,-0.0184375,-0.10875
2.257,-0.0184375,-0.1084375
2.258,-0.018125,-0.1075
2.259,-0.018125,-0.1071875
2.26,-0.0178125,-0.1065625
2.261,-0.0178125,-0.105625
2.262,-0.0175,-0.1053125
2.263,-0.0175,-0.1046875
2.264,-0.0171875,-0.1040625
2.265,-0.0171875,-0.10375
2.266,-0.0171875,-0.1028125
2.267,-0.016875,-0.1025
2.268,-0.016875,-0.101875
2.269,-0.0165625,-0.1015625
2.27,-0.01625,-0.10125
2.271,-0.01625,-0.1009375
2.272,-0.0159375,-0.100625
2.273,-0.0159375,-0.100625
2.274,-0.015625,-0.1003125
2.275,-0.0153125,-0.100625
2.276,-0.0153125,-0.100625
2.277,-0.0153125,-0.100625
2.278,-0.015,-0.10125
2.279,-0.0146875,-0.1015625
2.28,-0.014375,-0.1025
2.281,-0.014375,-0.1028125
2.282,-0.0140625,-0.10375
2.283,-0.01375,-0.1046875
2.284,-0.01375,-0.1059375
2.285,-0.0134375,-0.1071875
2.286,-0.013125,-0.10875
2.287,-0.013125,-0.1103125
2.288,-0.0125,-0.1121875
2.289,-0.0125,-0.11375
2.29,-0.0121875,-0.1159375
2.291,-0.011875,-0.1178125
2.292,-0.0115625,-0.12
2.293,-0.01125,-0.1221875
2.294,-0.0109375,-0.124375
2.295,-0.010625,-0.1265625
2.296,-0.0103125,-0.12875
2.297,-0.01,-0.1309375
2.298,-0.0096875,-0.133125
2.299,-0.0090625,-0.135
2.3,-0.0090625,-0.136875
2.301,-0.0084375,-0.1390625
2.302,-0.008125,-0.140625
2.303,-0.0078125,-0.1425
2.304,-0.0075,-0.1440625
2.305,-0.0071875,-0.145625
2.306,-0.006875,-0.1471875
2.307,-0.0065625,-0.1484375
2.308,-0.00625,-0.149375
2.309,-0.00625,-0.150625
2.31,-0.005625,-0.1515625
2.311,-0.005625,-0.1521875
2.312,-0.0053125,-0.1528125
2.313,-0.005,-0.153125
2.314,-0.005,-0.1534375
2.315,-0.0046875,-0.1534375
2.316,-0.004375,-0.1534375
2.317,-0.0040625,-0.153125
2.318,-0.0040625,-0.1525
2.319,-0.00375,-0.1521875
2.32,-0.0034375,-0.151875
2.321,-0.003125,-0.15125
2.322,-0.003125,-0.1503125
2.323,-0.0028125,-0.15
2.324,-0.0025,-0.1496875
2.325,-0.0021875,-0.1490625
2.326,-0.0021875,-0.14875
2.327,-0.001875,-0.1484375
2.328,-0.0015625,-0.1484375
2.329,-0.00125,-0.1484375
2.33,-0.00125,-0.1484375
2.331,-0.00125,-0.14875
2.332,-0.0009375,-0.14875
2.333,-0.000625,-0.1490625
2.334,-0.000625,-0.1496875
2.335,-0.0003125,-0.15
2.336,-0.0003125,-0.150625
2.337,0,-0.1509375
2.338,0,-0.1515625
2.339,0,-0.151875
2.34,0.0003125,-0.1521875
2.341,0.0003125,-0.153125
2.342,0.000625,-0.1534375
2.343,0.000625,-0.15375
2.344,0.0009375,-0.1546875
2.345,0.0009375,-0.1553125
2.346,0.0009375,-0.1559375
2.347,0.0009375,-0.1565625
2.348,0.0009375,-0.1575
2.349,0.0009375,-0.158125
2.35,0.0009375,-0.1590625
2.351,0.0009375,-0.159375
2.352,0.0009375,-0.1603125
2.353,0.0009375,-0.16125
2.354,0.0009375,-0.161875
2.355,0.0009375,-0.1621875
2.356,0.000625,-0.1625
2.357,0.000625,-0.163125
2.358,0.000625,-0.1634375
2.359,0.0003125,-0.1634375
2.36,0.0003125,-0.1634375
2.361,0,-0.1634375
2.362,-0.0003125,-0.1634375
2.363,-0.0003125,-0.1634375
2.364,-0.0003125,-0.163125
2.365,-0.000625,-0.163125
2.366,-0.0009375,-0.1628125
2.367,-0.0009375,-0.1625
2.368,-0.00125,-0.1625
2.369,-0.0015625,-0.161875
2.37,-0.0015625,-0.161875
2.371,-0.001875,-0.1615625
2.372,-0.0021875,-0.16125
2.373,-0.0025,-0.1609375
2.374,-0.0025,-0.160625
2.375,-0.003125,-0.1603125
2.376,-0.003125,-0.16
2.377,-0.0034375,-0.1596875
2.378,-0.0040625,-0.1590625
2.379,-0.0040625,-0.15875
2.38,-0.004375,-0.1584375
2.381,-0.005,-0.1575
2.382,-0.005,-0.1571875
2.383,-0.0053125,-0.156875
2.384,-0.005625,-0.1559375
2.385,-0.005625,-0.155625
2.386,-0.0059375,-0.1546875
2.387,-0.00625,-0.154375
2.388,-0.0065625,-0.1540625
2.389,-0.0065625,-0.1534375
2.39,-0.006875,-0.1525
2.391,-0.006875,-0.1521875
2.392,-0.006875,-0.1515625
2.393,-0.0071875,-0.1509375
2.394,-0.0071875,-0.150625
2.395,-0.0071875,-0.1503125
2.396,-0.0071875,-0.149375
2.397,-0.0075,-0.1490625
2.398,-0.0075,-0.14875
2.399,-0.0075,-0.148125
2.4,-0.0075,-0.1478125
2.401,-0.0075,-0.1475
2.402,-0.0075,-0.1471875
2.403,-0.0071875,-0.146875
2.404,-0.0071875,-0.146875
2.405,-0.0071875,-0.1465625
2.406,-0.006875,-0.1465625
2.407,-0.006875,-0.1465625
2.408,-0.0065625,-0.1465625
2.409,-0.00625,-0.1465625
2.41,-0.00625,-0.146875
2.411,-0.0059375,-0.146875
2.412,-0.0059375,-0.146875
2.413,-0.0053125,-0.1471875
2.414,-0.0053125,-0.1471875
2.415,-0.005,-0.1471875
2.416,-0.0046875,-0.1471875
2.417,-0.004375,-0.1471875
2.418,-0.004375,-0.146875
2.419,-0.00375,-0.146875
2.42,-0.00375,-0.146875
2.421,-0.0034375,-0.1465625
2.422,-0.0028125,-0.1465625
2.423,-0.0028125,-0.1465625
2.424,-0.0025,-0.14625
2.425,-0.0021875,-0.1459375
2.426,-0.001875,-0.1459375
2.427,-0.001875,-0.1453125
2.428,-0.00125,-0.145
2.429,-0.00125,-0.1446875
2.43,-0.0009375,-0.144375
2.431,-0.000625,-0.1434375
2.432,-0.0003125,-0.1428125
2.433,-0.0003125,-0.1425
2.434,0,-0.1415625
2.435,0,-0.1409375
2.436,0.0003125,-0.1396875
2.437,0.0003125,-0.1390625
2.438,0.000625,-0.1378125
2.439,0.000625,-0.136875
2.44,0.0009375,-0.1359375
2.441,0.0009375,-0.1346875
2.442,0.0009375,-0.1340625
2.443,0.00125,-0.1328125
2.444,0.00125,-0.1321875
2.445,0.0015625,-0.13125
2.446,0.0015625,-0.1303125
2.447,0.0015625,-0.1296875
2.448,0.001875,-0.129375
2.449,0.001875,-0.1290625
2.45,0.0021875,-0.12875
2.451,0.0021875,-0.12875
2.452,0.0021875,-0.12875
2.453,0.0025,-0.129375
2.454,0.0025,-0.129375
2.455,0.0025,-0.1303125
2.456,0.0025,-0.1309375
2.457,0.0025,-0.131875
2.458,0.0025,-0.133125
2.459,0.0025,-0.134375
2.46,0.0025,-0.135625
2.461,0.0025,-0.1375
2.462,0.0025,-0.13875
2.463,0.0021875,-0.1409375
2.464,0.0021875,-0.1428125
2.465,0.0021875,-0.145
2.466,0.0021875,-0.1471875
2.467,0.0021875,-0.1496875
2.468,0.001875,-0.1521875
2.469,0.001875,-0.1546875
2.47,0.0015625,-0.1575
2.471,0.00125,-0.16
2.472,0.00125,-0.163125
2.473,0.000625,-0.165625
2.474,0.000625,-0.16875
2.475,0,-0.1715625
2.476,0,-0.1740625
2.477,-0.000625,-0.176875
2.478,-0.0009375,-0.179375
2.479,-0.00125,-0.181875
2.48,-0.0015625,-0.1840625
2.481,-0.0021875,-0.18625
2.482,-0.0025,-0.1884375
2.483,-0.003125,-0.19
2.484,-0.0034375,-0.191875
2.485,-0.00375,-0.1934375
2.486,-0.004375,-0.1946875
2.487,-0.0046875,-0.195625
2.488,-0.0053125,-0.1965625
2.489,-0.005625,-0.1975
2.49,-0.0059375,-0.1978125
2.491,-0.0065625,-0.198125
2.492,-0.006875,-0.1984375
2.493,-0.0075,-0.19875
2.494,-0.0078125,-0.19875
2.495,-0.0084375,-0.1984375
2.496,-0.00875,-0.1984375
2.497,-0.0090625,-0.198125
2.498,-0.0096875,-0.1978125
2.499,-0.01,-0.1975
2.5,-0.0103125,-0.1971875
2.501,-0.010625,-0.1965625
2.502,-0.0109375,-0.19625
2.503,-0.01125,-0.1959375
2.504,-0.0115625,-0.195625
2.505,-0.011875,-0.195
2.506,-0.0121875,-0.1946875
2.507,-0.0121875,-0.194375
2.508,-0.0125,-0.1940625
2.509,-0.0128125,-0.1934375
2.51,-0.0128125,-0.1934375
2.511,-0.013125,-0.1928125
2.512,-0.0134375,-0.1928125
2.513,-0.0134375,-0.1921875
2.514,-0.01375,-0.1921875
2.515,-0.01375,-0.1915625
2.516,-0.01375,-0.1915625
2.517,-0.0140625,-0.19125
2.518,-0.0140625,-0.1909375
2.519,-0.0140625,-0.190625
2.52,-0.0140625,-0.190625
2.521,-0.01375,-0.190625
2.522,-0.01375,-0.190625
2.523,-0.01375,-0.190625
2.524,-0.0134375,-0.190625
2.525,-0.013125,-0.190625
2.526,-0.0128125,-0.1909375
2.527,-0.0125,-0.19125
2.528,-0.0125,-0.1915625
2.529,-0.0121875,-0.191875
2.53,-0.011875,-0.1925
2.531,-0.0115625,-0.1928125
2.532,-0.01125,-0.19375
2.533,-0.01125,-0.194375
2.534,-0.010625,-0.195
2.535,-0.0103125,-0.1959375
2.536,-0.0103125,-0.196875
2.537,-0.0096875,-0.1978125
2.538,-0.0096875,-0.1990625
2.539,-0.0090625,-0.2
2.54,-0.0090625,-0.20125
2.541,-0.0084375,-0.2028125
2.542,-0.008125,-0.204375
2.543,-0.0078125,-0.2059375
2.544,-0.0075,-0.2078125
2.545,-0.006875,-0.21
2.546,-0.006875,-0.211875
2.547,-0.00625,-0.2140625
2.548,-0.00625,-0.2165625
2.549,-0.0059375,-0.21875
2.55,-0.0053125,-0.22125
2.551,-0.005,-0.22375
2.552,-0.005,-0.22625
2.553,-0.0046875,-0.2284375
2.554,-0.0046875,-0.2309375
2.555,-0.004375,-0.233125
2.556,-0.0040625,-0.2353125
2.557,-0.0040625,-0.2375
2.558,-0.00375,-0.2390625
2.559,-0.00375,-0.24125
2.56,-0.0034375,-0.2428125
2.561,-0.0034375,-0.2446875
2.562,-0.003125,-0.2459375
2.563,-0.003125,-0.2478125
2.564,-0.003125,-0.2490625
2.565,-0.0028125,-0.2503125
2.566,-0.0028125,-0.2515625
2.567,-0.0025,-0.2528125
2.568,-0.0025,-0.2540625
2.569,-0.0025,-0.255
2.57,-0.0021875,-0.255625
2.571,-0.0021875,-0.2565625
2.572,-0.0021875,-0.256875
2.573,-0.0021875,-0.2575
2.574,-0.0021875,-0.2575
2.575,-0.0021875,-0.2578125
2.576,-0.0021875,-0.2578125
2.577,-0.0021875,-0.2575
2.578,-0.0025,-0.2575
2.579,-0.0025,-0.256875
2.58,-0.0025,-0.2565625
2.581,-0.0028125,-0.25625
2.582,-0.0028125,-0.255625
2.583,-0.003125,-0.2553125
2.584,-0.0034375,-0.2546875
2.585,-0.0034375,-0.2546875
2.586,-0.00375,-0.2540625
2.587,-0.0040625,-0.2540625
2.588,-0.0040625,-0.25375
2.589,-0.0046875,-0.25375
2.59,-0.0046875,-0.25375
2.591,-0.0053125,-0.25375
2.592,-0.005625,-0.25375
2.593,-0.0059375,-0.25375
2.594,-0.00625,-0.2540625
2.595,-0.0065625,-0.2540625
2.596,-0.0071875,-0.2540625
2.597,-0.0075,-0.2540625
2.598,-0.0078125,-0.2540625
2.599,-0.008125,-0.2540625
2.6,-0.00875,-0.2540625
2.601,-0.0090625,-0.2540625
2.602,-0.009375,-0.2540625
2.603,-0.0096875,-0.254375
2.604,-0.01,-0.254375
2.605,-0.0103125,-0.255
2.606,-0.010625,-0.2553125
2.607,-0.0109375,-0.2559375
2.608,-0.0109375,-0.2565625
2.609,-0.01125,-0.2575
2.61,-0.01125,-0.258125
2.611,-0.01125,-0.2590625
2.612,-0.0115625,-0.26
2.613,-0.0115625,-0.26125
2.614,-0.0115625,-0.2621875
2.615,-0.0115625,-0.2634375
2.616,-0.0115625,-0.2646875
2.617,-0.011875,-0.26625
2.618,-0.011875,-0.2675
2.619,-0.011875,-0.26875
2.62,-0.011875,-0.2703125
2.621,-0.011875,-0.271875
2.622,-0.011875,-0.273125
2.623,-0.011875,-0.2746875
2.624,-0.011875,-0.2765625
2.625,-0.011875,-0.278125
2.626,-0.011875,-0.2796875
2.627,-0.0115625,-0.28125
2.628,-0.0115625,-0.283125
2.629,-0.0115625,-0.2846875
2.63,-0.0115625,-0.28625
2.631,-0.0115625,-0.2884375
2.632,-0.01125,-0.2903125
2.633,-0.01125,-0.291875
2.634,-0.01125,-0.2940625
2.635,-0.01125,-0.295625
2.636,-0.01125,-0.2975
2.637,-0.01125,-0.2996875
2.638,-0.01125,-0.3015625
2.639,-0.0115625,-0.30375
2.64,-0.0115625,-0.305625
2.641,-0.0115625,-0.3078125
2.642,-0.0115625,-0.31
2.643,-0.0115625,-0.3121875
2.644,-0.011875,-0.314375
2.645,-0.011875,-0.3165625
2.646,-0.011875,-0.31875
2.647,-0.0121875,-0.32125
2.648,-0.0121875,-0.32375
2.649,-0.0121875,-0.32625
2.65,-0.0121875,-0.32875
2.651,-0.0125,-0.33125
2.652,-0.0125,-0.3340625
2.653,-0.0125,-0.3365625
2.654,-0.0125,-0.3396875
2.655,-0.0128125,-0.3425
2.656,-0.0128125,-0.3453125
2.657,-0.0128125,-0.3484375
2.658,-0.013125,-0.3515625
2.659,-0.013125,-0.3546875
2.66,-0.0134375,-0.3578125
2.661,-0.0134375,-0.36125
2.662,-0.0134375,-0.364375
2.663,-0.01375,-0.3675
2.664,-0.0140625,-0.3709375
2.665,-0.0140625,-0.374375
2.666,-0.0140625,-0.3778125
2.667,-0.014375,-0.38125
2.668,-0.0146875,-0.384375
2.669,-0.015,-0.3878125
2.67,-0.015,-0.39125
2.671,-0.0153125,-0.394375
2.672,-0.015625,-0.3975
2.673,-0.015625,-0.4009375
2.674,-0.01625,-0.4040625
2.675,-0.0165625,-0.4075
2.676,-0.016875,-0.4103125
2.677,-0.016875,-0.41375
2.678,-0.0175,-0.4165625
2.679,-0.0175,-0.4196875
2.68,-0.018125,-0.4221875
2.681,-0.0184375,-0.4253125
2.682,-0.01875,-0.4278125
2.683,-0.0190625,-0.4303125
2.684,-0.0196875,-0.4328125
2.685,-0.02,-0.4353125
2.686,-0.020625,-0.4375
2.687,-0.0209375,-0.4396875
2.688,-0.02125,-0.441875
2.689,-0.021875,-0.4440625
2.69,-0.0221875,-0.4459375
2.691,-0.023125,-0.4475
2.692,-0.0234375,-0.4490625
2.693,-0.0240625,-0.4509375
2.694,-0.024375,-0.4521875
2.695,-0.0253125,-0.45375
2.696,-0.025625,-0.455
2.697,-0.0259375,-0.45625
2.698,-0.0265625,-0.4571875
2.699,-0.0271875,-0.458125
2.7,-0.0275,-0.4590625
2.701,-0.028125,-0.46
2.702,-0.0284375,-0.460625
2.703,-0.02875,-0.4609375
2.704,-0.029375,-0.46125
2.705,-0.0296875,-0.461875
2.706,-0.0296875,-0.461875
2.707,-0.03,-0.4621875
2.708,-0.030625,-0.4621875
2.709,-0.030625,-0.4621875
2.71,-0.0309375,-0.4621875
2.711,-0.03125,-0.4621875
2.712,-0.0315625,-0.4621875
2.713,-0.0315625,-0.4621875
2.714,-0.031875,-0.4621875
2.715,-0.031875,-0.4621875
2.716,-0.031875,-0.4621875
2.717,-0.0321875,-0.4621875
2.718,-0.0321875,-0.4625
2.719,-0.0321875,-0.4628125
2.72,-0.0321875,-0.463125
2.721,-0.0321875,-0.4634375
2.722,-0.0321875,-0.464375
2.723,-0.0321875,-0.4646875
2.724,-0.0321875,-0.465625
2.725,-0.0321875,-0.4665625
2.726,-0.031875,-0.4671875
2.727,-0.031875,-0.468125
2.728,-0.031875,-0.469375
2.729,-0.031875,-0.4703125
2.73,-0.031875,-0.4715625
2.731,-0.0321875,-0.4728125
2.732,-0.0321875,-0.47375
2.733,-0.0321875,-0.475
2.734,-0.0325,-0.47625
2.735,-0.0325,-0.4775
2.736,-0.033125,-0.4784375
2.737,-0.033125,-0.4796875
2.738,-0.03375,-0.4809375
2.739,-0.03375,-0.4821875
2.74,-0.034375,-0.4834375
2.741,-0.034375,-0.4846875
2.742,-0.035,-0.4859375
2.743,-0.0353125,-0.4871875
2.744,-0.035625,-0.48875
2.745,-0.0359375,-0.49
2.746,-0.03625,-0.49125
2.747,-0.036875,-0.4925
2.748,-0.036875,-0.49375
2.749,-0.0375,-0.495
2.75,-0.0378125,-0.4959375
2.751,-0.038125,-0.496875
2.752,-0.0384375,-0.4978125
2.753,-0.0390625,-0.4984375
2.754,-0.0390625,-0.499375
2.755,-0.039375,-0.5
2.756,-0.04,-0.5003125
2.757,-0.0403125,-0.5009375
2.758,-0.040625,-0.50125
2.759,-0.040625,-0.501875
2.76,-0.04125,-0.5021875
2.761,-0.04125,-0.5025
2.762,-0.04125,-0.5028125
2.763,-0.0415625,-0.5034375
2.764,-0.0415625,-0.50375
2.765,-0.0415625,-0.5046875
2.766,-0.0415625,-0.505
2.767,-0.0415625,-0.5059375
2.768,-0.0415625,-0.506875
2.769,-0.0415625,-0.5075
2.77,-0.04125,-0.50875
2.771,-0.04125,-0.5096875
2.772,-0.04125,-0.510625
2.773,-0.0409375,-0.511875
2.774,-0.0409375,-0.5128125
2.775,-0.040625,-0.5140625
2.776,-0.0403125,-0.5153125
2.777,-0.04,-0.51625
2.778,-0.04,-0.5175
2.779,-0.04,-0.51875
2.78,-0.039375,-0.52
2.781,-0.039375,-0.52125
2.782,-0.0390625,-0.5225
2.783,-0.03875,-0.5240625
2.784,-0.03875,-0.525625
2.785,-0.0384375,-0.5271875
2.786,-0.038125,-0.5290625
2.787,-0.038125,-0.530625
2.788,-0.0375,-0.5325
2.789,-0.0375,-0.534375
2.79,-0.0371875,-0.5365625
2.791,-0.036875,-0.5384375
2.792,-0.036875,-0.540625
2.793,-0.0365625,-0.543125
2.794,-0.03625,-0.5453125
2.795,-0.03625,-0.5475
2.796,-0.0359375,-0.5496875
2.797,-0.035625,-0.5521875
2.798,-0.0353125,-0.5546875
2.799,-0.0353125,-0.5571875
2.8,-0.0353125,-0.559375
2.801,-0.035,-0.561875
2.802,-0.0346875,-0.5640625
2.803,-0.0346875,-0.5665625
2.804,-0.034375,-0.5690625
2.805,-0.034375,-0.57125
2.806,-0.0340625,-0.57375
2.807,-0.0340625,-0.5759375
2.808,-0.0340625,-0.578125
2.809,-0.03375,-0.580625
2.81,-0.03375,-0.5828125
2.811,-0.03375,-0.5846875
2.812,-0.03375,-0.5871875
2.813,-0.0340625,-0.5890625
2.814,-0.0340625,-0.59125
2.815,-0.0340625,-0.593125
2.816,-0.034375,-0.5953125
2.817,-0.034375,-0.596875
2.818,-0.0346875,-0.5990625
2.819,-0.035,-0.600625
2.82,-0.035,-0.6021875
2.821,-0.0353125,-0.6040625
2.822,-0.035625,-0.605625
2.823,-0.0359375,-0.6075
2.824,-0.03625,-0.60875
2.825,-0.036875,-0.610625
2.826,-0.0371875,-0.6121875
2.827,-0.0378125,-0.6134375
2.828,-0.038125,-0.615
2.829,-0.03875,-0.6165625
2.83,-0.039375,-0.618125
2.831,-0.04,-0.6196875
2.832,-0.040625,-0.62125
2.833,-0.04125,-0.6228125
2.834,-0.041875,-0.6240625
2.835,-0.0428125,-0.6259375
2.836,-0.043125,-0.6275
2.837,-0.0440625,-0.629375
2.838,-0.045,-0.6309375
2.839,-0.045625,-0.6325
2.84,-0.0459375,-0.634375
2.841,-0.046875,-0.6365625
2.842,-0.0475,-0.6384375
2.843,-0.0484375,-0.640625
2.844,-0.04875,-0.6428125
2.845,-0.0496875,-0.6453125
2.846,-0.05,-0.6478125
2.847,-0.0509375,-0.6503125
2.848,-0.05125,-0.653125
2.849,-0.051875,-0.65625
2.85,-0.0528125,-0.6590625
2.851,-0.053125,-0.6625
2.852,-0.05375,-0.665625
2.853,-0.0546875,-0.6690625
2.854,-0.055,-0.6725
2.855,-0.0559375,-0.67625
2.856,-0.05625,-0.6796875
2.857,-0.0565625,-0.6834375
2.858,-0.0571875,-0.686875
2.859,-0.0578125,-0.690625
2.86,-0.058125,-0.694375
2.861,-0.05875,-0.6978125
2.862,-0.0590625,-0.7015625
2.863,-0.059375,-0.705
2.864,-0.06,-0.7084375
2.865,-0.0603125,-0.711875
2.866,-0.060625,-0.715
2.867,-0.06125,-0.7184375
2.868,-0.0615625,-0.721875
2.869,-0.061875,-0.7246875
2.87,-0.0625,-0.7278125
2.871,-0.0628125,-0.7309375
2.872,-0.0634375,-0.73375
2.873,-0.06375,-0.7365625
2.874,-0.064375,-0.739375
2.875,-0.0646875,-0.741875
2.876,-0.065,-0.744375
2.877,-0.065625,-0.7465625
2.878,-0.06625,-0.74875
2.879,-0.066875,-0.7509375
2.88,-0.0671875,-0.7528125
2.881,-0.0675,-0.754375
2.882,-0.068125,-0.7559375
2.883,-0.0684375,-0.7575
2.884,-0.0690625,-0.75875
2.885,-0.0696875,-0.76
2.886,-0.07,-0.76125
2.887,-0.0703125,-0.7625
2.888,-0.0709375,-0.7640625
2.889,-0.07125,-0.7653125
2.89,-0.0715625,-0.7665625
2.891,-0.071875,-0.768125
2.892,-0.0725,-0.7696875
2.893,-0.0728125,-0.77125
2.894,-0.073125,-0.7734375
2.895,-0.0734375,-0.7753125
2.896,-0.07375,-0.7775
2.897,-0.0740625,-0.78
2.898,-0.0740625,-0.7821875
2.899,-0.0746875,-0.785
2.9,-0.0746875,-0.7875
2.901,-0.075,-0.7903125
2.902,-0.075,-0.793125
2.903,-0.075,-0.79625
2.904,-0.0753125,-0.7990625
2.905,-0.0753125,-0.801875
2.906,-0.0753125,-0.805
2.907,-0.0753125,-0.808125
2.908,-0.0753125,-0.81125
2.909,-0.0753125,-0.8140625
2.91,-0.0753125,-0.8171875
2.911,-0.0753125,-0.82
2.912,-0.0753125,-0.823125
2.913,-0.0753125,-0.82625
2.914,-0.0753125,-0.8290625
2.915,-0.0753125,-0.8321875
2.916,-0.0753125,-0.8346875
2.917,-0.0753125,-0.8378125
2.918,-0.0753125,-0.8403125
2.919,-0.0753125,-0.8428125
2.92,-0.0753125,-0.8453125
2.921,-0.0753125,-0.8478125
2.922,-0.0753125,-0.85
2.923,-0.0753125,-0.8521875
2.924,-0.0753125,-0.8540625
2.925,-0.0753125,-0.8559375
2.926,-0.0753125,-0.8575
2.927,-0.0753125,-0.859375
2.928,-0.0753125,-0.860625
2.929,-0.075625,-0.861875
2.93,-0.075625,-0.863125
2.931,-0.075625,-0.864375
2.932,-0.0759375,-0.865625
2.933,-0.0759375,-0.866875
2.934,-0.0759375,-0.868125
2.935,-0.07625,-0.869375
2.936,-0.0765625,-0.870625
2.937,-0.076875,-0.871875
2.938,-0.076875,-0.873125
2.939,-0.0771875,-0.875
2.94,-0.0775,-0.8765625
2.941,-0.0775,-0.878125
2.942,-0.0778125,-0.88
2.943,-0.078125,-0.8821875
2.944,-0.078125,-0.8840625
2.945,-0.0784375,-0.8865625
2.946,-0.07875,-0.8890625
2.947,-0.07875,-0.8915625
2.948,-0.0790625,-0.894375
2.949,-0.0790625,-0.8971875
2.95,-0.079375,-0.9
2.951,-0.079375,-0.903125
2.952,-0.0796875,-0.9065625
2.953,-0.08,-0.9096875
2.954,-0.08,-0.9134375
2.955,-0.0803125,-0.916875
2.956,-0.0803125,-0.92
2.957,-0.0809375,-0.92375
2.958,-0.0809375,-0.9275
2.959,-0.08125,-0.9309375
2.96,-0.0815625,-0.9346875
2.961,-0.081875,-0.9384375
2.962,-0.081875,-0.9421875
2.963,-0.0821875,-0.94625
2.964,-0.0825,-0.95
2.965,-0.0828125,-0.9540625
2.966,-0.083125,-0.9578125
2.967,-0.083125,-0.9615625
2.968,-0.083125,-0.965625
2.969,-0.0834375,-0.969375
2.97,-0.0834375,-0.973125
2.971,-0.0834375,-0.976875
2.972,-0.08375,-0.980625
2.973,-0.08375,-0.9840625
2.974,-0.08375,-0.9875
2.975,-0.0840625,-0.99125
2.976,-0.0840625,-0.994375
2.977,-0.0840625,-0.9975
2.978,-0.084375,-1.000938
2.979,-0.084375,-1.00375
2.98,-0.084375,-1.006875
2.981,-0.0846875,-1.009688
2.982,-0.0846875,-1.012813
2.983,-0.0846875,-1.015937
2.984,-0.085,-1.01875
2.985,-0.085,-1.021562
2.986,-0.085,-1.024688
2.987,-0.0853125,-1.027813
2.988,-0.0853125,-1.030625
2.989,-0.0853125,-1.034063
2.99,-0.0853125,-1.037187
2.991,-0.0853125,-1.040313
2.992,-0.0853125,-1.04375
2.993,-0.0853125,-1.046875
2.994,-0.085625,-1.05
2.995,-0.085625,-1.053438
2.996,-0.085625,-1.056563
2.997,-0.085625,-1.059688
2.998,-0.085625,-1.062812
2.999,-0.085625,-1.06625
3,-0.085625,-1.069063
3.001,-0.085625,-1.0725
3.002,-0.085625,-1.075625
3.003,-0.085625,-1.078437
3.004,-0.085625,-1.081563
3.005,-0.085625,-1.084688
3.006,-0.0859375,-1.087813
3.007,-0.0859375,-1.090938
3.008,-0.0859375,-1.09375
3.009,-0.0859375,-1.097188
3.01,-0.0859375,-1.100313
3.011,-0.08625,-1.103125
3.012,-0.08625,-1.10625
3.013,-0.08625,-1.109063
3.014,-0.08625,-1.112188
3.015,-0.0865625,-1.115
3.016,-0.0865625,-1.1175
3.017,-0.0865625,-1.120313
3.018,-0.0865625,-1.122813
3.019,-0.0865625,-1.125
3.02,-0.086875,-1.1275
3.021,-0.086875,-1.129375
3.022,-0.086875,-1.131563
3.023,-0.086875,-1.133125
3.024,-0.086875,-1.135312
3.025,-0.086875,-1.136875
3.026,-0.086875,-1.138438
3.027,-0.086875,-1.14
3.028,-0.086875,-1.14125
3.029,-0.086875,-1.1425
3.03,-0.086875,-1.14375
3.031,-0.086875,-1.144688
3.032,-0.086875,-1.145313
3.033,-0.086875,-1.14625
3.034,-0.086875,-1.146875
3.035,-0.086875,-1.147188
3.036,-0.086875,-1.1475
3.037,-0.086875,-1.1475
3.038,-0.086875,-1.147188
3.039,-0.086875,-1.146875
3.04,-0.086875,-1.146562
3.041,-0.086875,-1.145625
3.042,-0.086875,-1.145
3.043,-0.086875,-1.14375
3.044,-0.086875,-1.142813
3.045,-0.0865625,-1.141563
3.046,-0.0865625,-1.140313
3.047,-0.0865625,-1.13875
3.048,-0.08625,-1.137188
3.049,-0.08625,-1.135625
3.05,-0.0859375,-1.134063
3.051,-0.0859375,-1.1325
3.052,-0.0859375,-1.130625
3.053,-0.0859375,-1.129063
3.054,-0.085625,-1.1275
3.055,-0.085625,-1.125312
3.056,-0.085625,-1.12375
3.057,-0.0853125,-1.121563
3.058,-0.0853125,-1.12
3.059,-0.0853125,-1.117813
3.06,-0.085,-1.11625
3.061,-0.085,-1.114063
3.062,-0.0846875,-1.112188
3.063,-0.0846875,-1.11
3.064,-0.084375,-1.107813
3.065,-0.084375,-1.105625
3.066,-0.0840625,-1.103438
3.067,-0.0840625,-1.101563
3.068,-0.08375,-1.099063
3.069,-0.0834375,-1.097188
3.07,-0.0834375,-1.095
3.071,-0.083125,-1.0925
3.072,-0.083125,-1.090313
3.073,-0.0828125,-1.088125
3.074,-0.0825,-1.085938
3.075,-0.0825,-1.08375
3.076,-0.0821875,-1.08125
3.077,-0.081875,-1.07875
3.078,-0.081875,-1.07625
3.079,-0.081875,-1.07375
3.08,-0.0815625,-1.07125
3.081,-0.08125,-1.06875
3.082,-0.08125,-1.065938
3.083,-0.0809375,-1.063125
3.084,-0.0809375,-1.060625
3.085,-0.080625,-1.057813
3.086,-0.080625,-1.055
3.087,-0.0803125,-1.052188
3.088,-0.0803125,-1.049375
3.089,-0.0803125,-1.046563
3.09,-0.08,-1.04375
3.091,-0.08,-1.04125
3.092,-0.08,-1.03875
3.093,-0.0796875,-1.035938
3.094,-0.0796875,-1.033438
3.095,-0.0796875,-1.030938
3.096,-0.0796875,-1.028438
3.097,-0.0796875,-1.02625
3.098,-0.0796875,-1.02375
3.099,-0.0796875,-1.021562
3.1,-0.0796875,-1.019688
3.101,-0.0796875,-1.0175
3.102,-0.0796875,-1.015625
3.103,-0.08,-1.01375
3.104,-0.08,-1.011875
3.105,-0.08,-1.010312
3.106,-0.0803125,-1.00875
3.107,-0.0803125,-1.0075
3.108,-0.080625,-1.00625
3.109,-0.0809375,-1.005
3.11,-0.0809375,-1.00375
3.111,-0.08125,-1.0025
3.112,-0.08125,-1.001562
3.113,-0.0815625,-1.000312
3.114,-0.0821875,-0.999375
3.115,-0.0821875,-0.9984375
3.116,-0.0825,-0.9971875
3.117,-0.0828125,-0.9959375
3.118,-0.083125,-0.995
3.119,-0.0834375,-0.9934375
3.12,-0.08375,-0.9921875
3.121,-0.0840625,-0.9909375
3.122,-0.084375,-0.9890625
3.123,-0.0846875,-0.9875
3.124,-0.0853125,-0.9859375
3.125,-0.0853125,-0.984375
3.126,-0.0859375,-0.9825
3.127,-0.08625,-0.9809375
3.128,-0.0865625,-0.9790625
3.129,-0.086875,-0.9775
3.13,-0.0875,-0.9759375
3.131,-0.0878125,-0.974375
3.132,-0.088125,-0.9725
3.133,-0.0884375,-0.9709375
3.134,-0.0890625,-0.969375
3.135,-0.089375,-0.9678125
3.136,-0.0896875,-0.9659375
3.137,-0.0903125,-0.964375
3.138,-0.090625,-0.9625
3.139,-0.0909375,-0.9609375
3.14,-0.09125,-0.9590625
3.141,-0.0915625,-0.956875
3.142,-0.0921875,-0.9546875
3.143,-0.0921875,-0.9528125
3.144,-0.0928125,-0.9509375
3.145,-0.0928125,-0.94875
3.146,-0.0934375,-0.946875
3.147,-0.0934375,-0.9446875
3.148,-0.09375,-0.943125
3.149,-0.0940625,-0.9409375
3.15,-0.0940625,-0.939375
3.151,-0.094375,-0.9375
3.152,-0.0946875,-0.9359375
3.153,-0.095,-0.9346875
3.154,-0.095,-0.9334375
3.155,-0.095,-0.9321875
3.156,-0.0953125,-0.9309375
3.157,-0.095625,-0.9296875
3.158,-0.095625,-0.9284375
3.159,-0.0959375,-0.9271875
3.16,-0.0959375,-0.9265625
3.161,-0.0959375,-0.9253125
3.162,-0.09625,-0.924375
3.163,-0.09625,-0.9234375
3.164,-0.0965625,-0.9228125
3.165,-0.0965625,-0.921875
3.166,-0.0965625,-0.92125
3.167,-0.0965625,-0.9203125
3.168,-0.0965625,-0.92
3.169,-0.096875,-0.9196875
3.17,-0.096875,-0.919375
3.171,-0.096875,-0.9190625
3.172,-0.096875,-0.91875
3.173,-0.096875,-0.91875
3.174,-0.096875,-0.91875
3.175,-0.096875,-0.91875
3.176,-0.096875,-0.9184375
3.177,-0.096875,-0.9184375
3.178,-0.096875,-0.9184375
3.179,-0.096875,-0.918125
3.18,-0.096875,-0.9178125
3.181,-0.0971875,-0.9175
3.182,-0.0971875,-0.9171875
3.183,-0.0971875,-0.9165625
3.184,-0.0971875,-0.91625
3.185,-0.0971875,-0.9153125
3.186,-0.0971875,-0.914375
3.187,-0.096875,-0.91375
3.188,-0.096875,-0.9128125
3.189,-0.096875,-0.911875
3.19,-0.096875,-0.910625
3.191,-0.096875,-0.909375
3.192,-0.096875,-0.908125
3.193,-0.096875,-0.9065625
3.194,-0.096875,-0.905
3.195,-0.096875,-0.9034375
3.196,-0.096875,-0.90125
3.197,-0.096875,-0.899375
3.198,-0.096875,-0.8971875
3.199,-0.0965625,-0.8946875
3.2,-0.0965625,-0.8921875
3.201,-0.0965625,-0.889375
3.202,-0.0965625,-0.8865625
3.203,-0.0965625,-0.88375
3.204,-0.09625,-0.8809375
3.205,-0.09625,-0.878125
3.206,-0.09625,-0.8753125
3.207,-0.09625,-0.8725
3.208,-0.09625,-0.8696875
3.209,-0.0959375,-0.8671875
3.21,-0.0959375,-0.8646875
3.211,-0.0959375,-0.8625
3.212,-0.0959375,-0.8603125
3.213,-0.0959375,-0.858125
3.214,-0.095625,-0.85625
3.215,-0.095625,-0.8546875
3.216,-0.095625,-0.8528125
3.217,-0.095625,-0.85125
3.218,-0.095625,-0.8496875
3.219,-0.095625,-0.8484375
3.22,-0.095625,-0.846875
3.221,-0.095625,-0.845625
3.222,-0.095625,-0.844375
3.223,-0.095625,-0.8428125
3.224,-0.095625,-0.8415625
3.225,-0.095625,-0.8403125
3.226,-0.095625,-0.8390625
3.227,-0.095625,-0.8378125
3.228,-0.095625,-0.83625
3.229,-0.0959375,-0.835
3.23,-0.0959375,-0.8334375
3.231,-0.0959375,-0.831875
3.232,-0.09625,-0.8303125
3.233,-0.09625,-0.82875
3.234,-0.09625,-0.826875
3.235,-0.0965625,-0.8246875
3.236,-0.096875,-0.8225
3.237,-0.0971875,-0.82
3.238,-0.0971875,-0.8175
3.239,-0.0975,-0.815
3.24,-0.0978125,-0.811875
3.241,-0.0978125,-0.80875
3.242,-0.0984375,-0.8053125
3.243,-0.0984375,-0.801875
3.244,-0.09875,-0.798125
3.245,-0.0990625,-0.7940625
3.246,-0.099375,-0.79
3.247,-0.099375,-0.7859375
3.248,-0.1,-0.7815625
3.249,-0.1,-0.776875
3.25,-0.1003125,-0.7721875
3.251,-0.100625,-0.7675
3.252,-0.100625,-0.7628125
3.253,-0.1009375,-0.7578125
3.254,-0.10125,-0.753125
3.255,-0.10125,-0.748125
3.256,-0.1015625,-0.743125
3.257,-0.1015625,-0.7384375
3.258,-0.101875,-0.73375
3.259,-0.1021875,-0.7290625
3.26,-0.1021875,-0.724375
3.261,-0.1025,-0.72
3.262,-0.1025,-0.715625
3.263,-0.1028125,-0.7115625
3.264,-0.1028125,-0.7071875
3.265,-0.1028125,-0.7034375
3.266,-0.103125,-0.6996875
3.267,-0.103125,-0.6959375
3.268,-0.103125,-0.6925
3.269,-0.1034375,-0.689375
3.27,-0.1034375,-0.68625
3.271,-0.1034375,-0.683125
3.272,-0.1034375,-0.68
3.273,-0.10375,-0.6771875
3.274,-0.10375,-0.674375
3.275,-0.10375,-0.6715625
3.276,-0.10375,-0.6690625
3.277,-0.10375,-0.6665625
3.278,-0.1040625,-0.6640625
3.279,-0.1040625,-0.6615625
3.28,-0.1040625,-0.6590625
3.281,-0.1040625,-0.656875
3.282,-0.1040625,-0.654375
3.283,-0.104375,-0.6525
3.284,-0.104375,-0.65
3.285,-0.104375,-0.648125
3.286,-0.104375,-0.6459375
3.287,-0.104375,-0.64375
3.288,-0.104375,-0.6415625
3.289,-0.1046875,-0.6396875
3.29,-0.1046875,-0.6371875
3.291,-0.1046875,-0.6353125
3.292,-0.104375,-0.633125
3.293,-0.104375,-0.6309375
3.294,-0.104375,-0.62875
3.295,-0.104375,-0.6265625
3.296,-0.104375,-0.6240625
3.297,-0.1040625,-0.6215625
3.298,-0.1040625,-0.619375
3.299,-0.10375,-0.616875
3.3,-0.1034375,-0.614375
3.301,-0.1034375,-0.611875
3.302,-0.103125,-0.609375
3.303,-0.1028125,-0.606875
3.304,-0.1028125,-0.6040625
3.305,-0.1021875,-0.6015625
3.306,-0.1021875,-0.5990625
3.307,-0.101875,-0.5965625
3.308,-0.1015625,-0.594375
3.309,-0.10125,-0.591875
3.31,-0.1009375,-0.589375
3.311,-0.100625,-0.5871875
3.312,-0.1003125,-0.585
3.313,-0.0996875,-0.5828125
3.314,-0.099375,-0.580625
3.315,-0.099375,-0.578125
3.316,-0.09875,-0.57625
3.317,-0.0984375,-0.5740625
3.318,-0.098125,-0.571875
3.319,-0.0978125,-0.5696875
3.32,-0.0971875,-0.5675
3.321,-0.096875,-0.5653125
3.322,-0.0965625,-0.5628125
3.323,-0.09625,-0.5603125
3.324,-0.095625,-0.558125
3.325,-0.0953125,-0.555625
3.326,-0.095,-0.5528125
3.327,-0.0946875,-0.5503125
3.328,-0.094375,-0.5478125
3.329,-0.0940625,-0.5446875
3.33,-0.0934375,-0.5421875
3.331,-0.0934375,-0.539375
3.332,-0.0928125,-0.53625
3.333,-0.0925,-0.5334375
3.334,-0.0925,-0.5303125
3.335,-0.0921875,-0.5275
3.336,-0.091875,-0.524375
3.337,-0.0915625,-0.5209375
3.338,-0.0915625,-0.5178125
3.339,-0.0909375,-0.514375
3.34,-0.0909375,-0.5109375
3.341,-0.090625,-0.5075
3.342,-0.0903125,-0.5040625
3.343,-0.0903125,-0.5003125
3.344,-0.09,-0.4965625
3.345,-0.0896875,-0.4928125
3.346,-0.0896875,-0.48875
3.347,-0.089375,-0.485
3.348,-0.089375,-0.4809375
3.349,-0.0890625,-0.476875
3.35,-0.0890625,-0.473125
3.351,-0.0890625,-0.46875
3.352,-0.08875,-0.4646875
3.353,-0.08875,-0.460625
3.354,-0.08875,-0.45625
3.355,-0.08875,-0.4521875
3.356,-0.0890625,-0.448125
3.357,-0.0890625,-0.4434375
3.358,-0.0890625,-0.439375
3.359,-0.0890625,-0.435
3.36,-0.089375,-0.430625
3.361,-0.089375,-0.4259375
3.362,-0.089375,-0.421875
3.363,-0.0896875,-0.4171875
3.364,-0.0896875,-0.4128125
3.365,-0.09,-0.408125
3.366,-0.09,-0.4034375
3.367,-0.0903125,-0.3990625
3.368,-0.0903125,-0.3940625
3.369,-0.090625,-0.389375
3.37,-0.090625,-0.384375
3.371,-0.0909375,-0.379375
3.372,-0.09125,-0.3746875
3.373,-0.09125,-0.3696875
3.374,-0.09125,-0.364375
3.375,-0.0915625,-0.359375
3.376,-0.091875,-0.3540625
3.377,-0.091875,-0.3490625
3.378,-0.0921875,-0.3440625
3.379,-0.0921875,-0.33875
3.38,-0.0925,-0.33375
3.381,-0.0925,-0.32875
3.382,-0.0925,-0.32375
3.383,-0.0928125,-0.31875
3.384,-0.0928125,-0.31375
3.385,-0.093125,-0.3090625
3.386,-0.093125,-0.304375
3.387,-0.093125,-0.2996875
3.388,-0.0934375,-0.2953125
3.389,-0.0934375,-0.290625
3.39,-0.0934375,-0.28625
3.391,-0.09375,-0.2821875
3.392,-0.09375,-0.278125
3.393,-0.09375,-0.27375
3.394,-0.0940625,-0.27
3.395,-0.0940625,-0.2659375
3.396,-0.094375,-0.2621875
3.397,-0.094375,-0.25875
3.398,-0.094375,-0.255
3.399,-0.094375,-0.251875
3.4,-0.094375,-0.2484375
3.401,-0.0946875,-0.2453125
3.402,-0.0946875,-0.2425
3.403,-0.0946875,-0.2396875
3.404,-0.0946875,-0.2371875
3.405,-0.0946875,-0.2346875
3.406,-0.0946875,-0.2321875
3.407,-0.0946875,-0.23
3.408,-0.0946875,-0.228125
3.409,-0.0946875,-0.2259375
3.41,-0.0946875,-0.2240625
3.411,-0.0946875,-0.221875
3.412,-0.0946875,-0.2203125
3.413,-0.0946875,-0.2184375
3.414,-0.0946875,-0.216875
3.415,-0.0946875,-0.2153125
3.416,-0.0946875,-0.21375
3.417,-0.0946875,-0.2121875
3.418,-0.0946875,-0.2109375
3.419,-0.0946875,-0.2096875
3.42,-0.0946875,-0.2084375
3.421,-0.094375,-0.2075
3.422,-0.094375,-0.20625
3.423,-0.094375,-0.205625
3.424,-0.0940625,-0.2046875
3.425,-0.0940625,-0.204375
3.426,-0.09375,-0.2034375
3.427,-0.09375,-0.203125
3.428,-0.0934375,-0.2028125
3.429,-0.0934375,-0.2025
3.43,-0.093125,-0.2025
3.431,-0.093125,-0.2025
3.432,-0.0928125,-0.2025
3.433,-0.0925,-0.2025
3.434,-0.0925,-0.2025
3.435,-0.0925,-0.203125
3.436,-0.0921875,-0.203125
3.437,-0.091875,-0.20375
3.438,-0.0915625,-0.2040625
3.439,-0.0915625,-0.2046875
3.44,-0.09125,-0.205
3.441,-0.09125,-0.2059375
3.442,-0.0909375,-0.20625
3.443,-0.090625,-0.2071875
3.444,-0.090625,-0.208125
3.445,-0.09,-0.20875
3.446,-0.09,-0.21
3.447,-0.0896875,-0.210625
3.448,-0.089375,-0.211875
3.449,-0.089375,-0.2128125
3.45,-0.0890625,-0.21375
3.451,-0.08875,-0.215
3.452,-0.08875,-0.215625
3.453,-0.088125,-0.216875
3.454,-0.088125,-0.2178125
3.455,-0.0878125,-0.2184375
3.456,-0.0875,-0.219375
3.457,-0.0875,-0.2203125
3.458,-0.0871875,-0.22125
3.459,-0.086875,-0.2215625
3.46,-0.086875,-0.2221875
3.461,-0.086875,-0.223125
3.462,-0.0865625,-0.2234375
3.463,-0.08625,-0.22375
3.464,-0.08625,-0.2240625
3.465,-0.0859375,-0.224375
3.466,-0.085625,-0.224375
3.467,-0.085625,-0.2240625
3.468,-0.0853125,-0.2240625
3.469,-0.085,-0.22375
3.47,-0.085,-0.223125
3.471,-0.085,-0.2228125
3.472,-0.0846875,-0.2221875
3.473,-0.084375,-0.22125
3.474,-0.0840625,-0.220625
3.475,-0.0840625,-0.2196875
3.476,-0.0840625,-0.21875
3.477,-0.08375,-0.2175
3.478,-0.08375,-0.21625
3.479,-0.0834375,-0.215
3.48,-0.083125,-0.21375
3.481,-0.083125,-0.2125
3.482,-0.0828125,-0.21125
3.483,-0.0828125,-0.21
3.484,-0.0825,-0.20875
3.485,-0.0821875,-0.2075
3.486,-0.0821875,-0.20625
3.487,-0.0821875,-0.205
3.488,-0.081875,-0.20375
3.489,-0.0815625,-0.2025
3.49,-0.08125,-0.20125
3.491,-0.08125,-0.2
3.492,-0.0809375,-0.1990625
3.493,-0.0809375,-0.198125
3.494,-0.080625,-0.196875
3.495,-0.0803125,-0.19625
3.496,-0.0803125,-0.195
3.497,-0.08,-0.194375
3.498,-0.0796875,-0.1934375
3.499,-0.0796875,-0.1925
3.5,-0.0796875,-0.191875
3.501,-0.079375,-0.1915625
3.502,-0.079375,-0.19125
3.503,-0.0790625,-0.190625
3.504,-0.0790625,-0.190625
3.505,-0.0790625,-0.1903125
3.506,-0.0790625,-0.1903125
3.507,-0.0790625,-0.1903125
3.508,-0.07875,-0.1903125
3.509,-0.07875,-0.190625
3.51,-0.0790625,-0.1909375
3.511,-0.0790625,-0.1909375
3.512,-0.0790625,-0.1915625
3.513,-0.0790625,-0.191875
3.514,-0.0790625,-0.1921875
3.515,-0.0790625,-0.193125
3.516,-0.0790625,-0.1934375
3.517,-0.079375,-0.1940625
3.518,-0.079375,-0.195
3.519,-0.079375,-0.195625
3.52,-0.0796875,-0.1965625
3.521,-0.0796875,-0.1975
3.522,-0.08,-0.19875
3.523,-0.08,-0.2
3.524,-0.0803125,-0.20125
3.525,-0.0803125,-0.2028125
3.526,-0.0803125,-0.204375
3.527,-0.080625,-0.2059375
3.528,-0.080625,-0.208125
3.529,-0.0809375,-0.2096875
3.53,-0.0809375,-0.211875
3.531,-0.0809375,-0.2140625
3.532,-0.08125,-0.2159375
3.533,-0.08125,-0.2178125
3.534,-0.08125,-0.22
3.535,-0.08125,-0.221875
3.536,-0.08125,-0.2240625
3.537,-0.0815625,-0.225625
3.538,-0.0815625,-0.2275
3.539,-0.08125,-0.2290625
3.54,-0.08125,-0.2309375
3.541,-0.08125,-0.2325
3.542,-0.08125,-0.23375
3.543,-0.08125,-0.235
3.544,-0.08125,-0.23625
3.545,-0.08125,-0.2375
3.546,-0.0809375,-0.238125
3.547,-0.0809375,-0.2390625
3.548,-0.0809375,-0.24
3.549,-0.080625,-0.2403125
3.55,-0.080625,-0.240625
3.551,-0.0803125,-0.2409375
3.552,-0.0803125,-0.2409375
3.553,-0.0803125,-0.240625
3.554,-0.08,-0.2403125
3.555,-0.08,-0.2396875
3.556,-0.0796875,-0.2390625
3.557,-0.079375,-0.238125
3.558,-0.079375,-0.236875
3.559,-0.079375,-0.235625
3.56,-0.0790625,-0.234375
3.561,-0.07875,-0.233125
3.562,-0.07875,-0.2315625
3.563,-0.0784375,-0.23
3.564,-0.078125,-0.22875
3.565,-0.078125,-0.226875
3.566,-0.0778125,-0.225625
3.567,-0.0775,-0.2240625
3.568,-0.0775,-0.2225
3.569,-0.0771875,-0.22125
3.57,-0.0771875,-0.22
3.571,-0.076875,-0.21875
3.572,-0.0765625,-0.2175
3.573,-0.0765625,-0.2165625
3.574,-0.0765625,-0.215625
3.575,-0.07625,-0.214375
3.576,-0.07625,-0.21375
3.577,-0.0759375,-0.2125
3.578,-0.075625,-0.211875
3.579,-0.075625,-0.21125
3.58,-0.075625,-0.2103125
3.581,-0.0753125,-0.209375
3.582,-0.075,-0.2090625
3.583,-0.075,-0.208125
3.584,-0.075,-0.2078125
3.585,-0.0746875,-0.206875
3.586,-0.0746875,-0.2065625
3.587,-0.074375,-0.2059375
3.588,-0.074375,-0.2053125
3.589,-0.0740625,-0.205
3.59,-0.0740625,-0.2046875
3.591,-0.07375,-0.20375
3.592,-0.07375,-0.2034375
3.593,-0.0734375,-0.2028125
3.594,-0.073125,-0.201875
3.595,-0.073125,-0.2015625
3.596,-0.0728125,-0.200625
3.597,-0.0728125,-0.2
3.598,-0.0725,-0.1990625
3.599,-0.0721875,-0.1984375
3.6,-0.0721875,-0.1971875
3.601,-0.0715625,-0.19625
3.602,-0.0715625,-0.1953125
3.603,-0.07125,-0.194375
3.604,-0.0709375,-0.193125
3.605,-0.070625,-0.191875
3.606,-0.0703125,-0.1909375
3.607,-0.07,-0.1896875
3.608,-0.0696875,-0.1884375
3.609,-0.069375,-0.1871875
3.61,-0.0690625,-0.1859375
3.611,-0.06875,-0.1846875
3.612,-0.0684375,-0.183125
3.613,-0.068125,-0.181875
3.614,-0.0678125,-0.1803125
3.615,-0.0678125,-0.17875
3.616,-0.0675,-0.1775
3.617,-0.066875,-0.17625
3.618,-0.066875,-0.1746875
3.619,-0.06625,-0.173125
3.62,-0.0659375,-0.171875
3.621,-0.0659375,-0.170625
3.622,-0.065625,-0.169375
3.623,-0.0653125,-0.168125
3.624,-0.065,-0.1671875
3.625,-0.065,-0.16625
3.626,-0.064375,-0.165625
3.627,-0.064375,-0.165
3.628,-0.0640625,-0.1646875
3.629,-0.06375,-0.164375
3.63,-0.06375,-0.164375
3.631,-0.0634375,-0.164375
3.632,-0.063125,-0.164375
3.633,-0.063125,-0.1646875
3.634,-0.063125,-0.1653125
3.635,-0.0628125,-0.165625
3.636,-0.0625,-0.1665625
3.637,-0.0625,-0.1675
3.638,-0.0625,-0.1684375
3.639,-0.0621875,-0.1696875
3.64,-0.0621875,-0.1709375
3.641,-0.061875,-0.1721875
3.642,-0.0615625,-0.17375
3.643,-0.0615625,-0.1753125
3.644,-0.06125,-0.176875
3.645,-0.06125,-0.17875
3.646,-0.06125,-0.1809375
3.647,-0.0609375,-0.1834375
3.648,-0.0609375,-0.1853125
3.649,-0.0609375,-0.1878125
3.65,-0.060625,-0.1903125
3.651,-0.060625,-0.1928125
3.652,-0.060625,-0.1953125
3.653,-0.060625,-0.1978125
3.654,-0.0603125,-0.200625
3.655,-0.0603125,-0.203125
3.656,-0.0603125,-0.205625
3.657,-0.0603125,-0.208125
3.658,-0.0603125,-0.210625
3.659,-0.0603125,-0.2128125
3.66,-0.0603125,-0.215
3.661,-0.0603125,-0.2165625
3.662,-0.0603125,-0.2184375
3.663,-0.06,-0.22
3.664,-0.06,-0.22125
3.665,-0.06,-0.2225
3.666,-0.0596875,-0.2234375
3.667,-0.0596875,-0.224375
3.668,-0.0596875,-0.2246875
3.669,-0.059375,-0.225
3.67,-0.059375,-0.225
3.671,-0.0590625,-0.2246875
3.672,-0.05875,-0.224375
3.673,-0.0584375,-0.22375
3.674,-0.0584375,-0.2228125
3.675,-0.058125,-0.2215625
3.676,-0.0578125,-0.2203125
3.677,-0.0578125,-0.21875
3.678,-0.0571875,-0.216875
3.679,-0.056875,-0.2146875
3.68,-0.0565625,-0.2125
3.681,-0.05625,-0.21
3.682,-0.055625,-0.2075
3.683,-0.0553125,-0.204375
3.684,-0.055,-0.2015625
3.685,-0.054375,-0.198125
3.686,-0.05375,-0.195
3.687,-0.0534375,-0.1915625
3.688,-0.0525,-0.1878125
3.689,-0.0521875,-0.1840625
3.69,-0.051875,-0.180625
3.691,-0.0509375,-0.176875
3.692,-0.050625,-0.173125
3.693,-0.05,-0.1696875
3.694,-0.0490625,-0.1659375
3.695,-0.04875,-0.1625
3.696,-0.0484375,-0.1590625
3.697,-0.0475,-0.155625
3.698,-0.0471875,-0.1525
3.699,-0.0465625,-0.1496875
3.7,-0.0459375,-0.1465625
3.701,-0.045625,-0.1440625
3.702,-0.045,-0.141875
3.703,-0.044375,-0.1396875
3.704,-0.0440625,-0.1375
3.705,-0.04375,-0.1359375
3.706,-0.043125,-0.1346875
3.707,-0.0428125,-0.1334375
3.708,-0.0421875,-0.1325
3.709,-0.041875,-0.131875
3.71,-0.0415625,-0.1315625
3.711,-0.04125,-0.1315625
3.712,-0.040625,-0.131875
3.713,-0.0403125,-0.1321875
3.714,-0.04,-0.1328125
3.715,-0.0396875,-0.13375
3.716,-0.039375,-0.1346875
3.717,-0.0390625,-0.1359375
3.718,-0.0384375,-0.1375
3.719,-0.038125,-0.1390625
3.72,-0.038125,-0.1409375
3.721,-0.0378125,-0.1425
3.722,-0.0375,-0.1440625
3.723,-0.0371875,-0.1459375
3.724,-0.036875,-0.148125
3.725,-0.036875,-0.15
3.726,-0.03625,-0.1521875
3.727,-0.03625,-0.1540625
3.728,-0.0359375,-0.155625
3.729,-0.035625,-0.1575
3.73,-0.035625,-0.1590625
3.731,-0.0353125,-0.160625
3.732,-0.035,-0.161875
3.733,-0.035,-0.163125
3.734,-0.0346875,-0.164375
3.735,-0.0346875,-0.1653125
3.736,-0.034375,-0.1659375
3.737,-0.034375,-0.16625
3.738,-0.034375,-0.166875
3.739,-0.0340625,-0.166875
3.74,-0.0340625,-0.1665625
3.741,-0.0340625,-0.16625
3.742,-0.0340625,-0.1659375
3.743,-0.0340625,-0.165
3.744,-0.0340625,-0.1640625
3.745,-0.0340625,-0.163125
3.746,-0.0340625,-0.161875
3.747,-0.0340625,-0.1603125
3.748,-0.0340625,-0.15875
3.749,-0.0340625,-0.1571875
3.75,-0.0340625,-0.155
3.751,-0.034375,-0.1534375
3.752,-0.034375,-0.15125
3.753,-0.034375,-0.149375
3.754,-0.0346875,-0.146875
3.755,-0.0346875,-0.1446875
3.756,-0.035,-0.1425
3.757,-0.035,-0.14
3.758,-0.0353125,-0.1378125
3.759,-0.0353125,-0.1353125
3.76,-0.035625,-0.133125
3.761,-0.035625,-0.130625
3.762,-0.0359375,-0.1284375
3.763,-0.0359375,-0.1259375
3.764,-0.0359375,-0.1240625
3.765,-0.03625,-0.121875
3.766,-0.03625,-0.1196875
3.767,-0.0365625,-0.118125
3.768,-0.0365625,-0.1159375
3.769,-0.0365625,-0.114375
3.77,-0.0365625,-0.1121875
3.771,-0.036875,-0.110625
3.772,-0.036875,-0.10875
3.773,-0.036875,-0.1071875
3.774,-0.036875,-0.105625
3.775,-0.036875,-0.1040625
3.776,-0.0371875,-0.1025
3.777,-0.0371875,-0.10125
3.778,-0.0371875,-0.1
3.779,-0.0371875,-0.09875
3.78,-0.0375,-0.098125
3.781,-0.0375,-0.0971875
3.782,-0.0375,-0.096875
3.783,-0.0378125,-0.09625
3.784,-0.0378125,-0.09625
3.785,-0.0378125,-0.0965625
3.786,-0.0378125,-0.0971875
3.787,-0.038125,-0.0978125
3.788,-0.038125,-0.0990625
3.789,-0.038125,-0.100625
3.79,-0.0384375,-0.1021875
3.791,-0.0384375,-0.104375
3.792,-0.0384375,-0.1065625
3.793,-0.03875,-0.1090625
3.794,-0.03875,-0.111875
3.795,-0.03875,-0.115
3.796,-0.03875,-0.1178125
3.797,-0.0390625,-0.12125
3.798,-0.0390625,-0.1246875
3.799,-0.0390625,-0.1284375
3.8,-0.0390625,-0.1321875
3.801,-0.0390625,-0.1359375
3.802,-0.039375,-0.14
3.803,-0.039375,-0.1440625
3.804,-0.0390625,-0.14875
3.805,-0.0390625,-0.1528125
3.806,-0.0390625,-0.1575
3.807,-0.0390625,-0.161875
3.808,-0.0390625,-0.1665625
3.809,-0.0390625,-0.1715625
3.81,-0.0390625,-0.1759375
3.811,-0.0390625,-0.180625
3.812,-0.03875,-0.1853125
3.813,-0.03875,-0.189375
3.814,-0.03875,-0.19375
3.815,-0.03875,-0.1975
3.816,-0.03875,-0.20125
3.817,-0.03875,-0.2046875
3.818,-0.03875,-0.2075
3.819,-0.03875,-0.2103125
3.82,-0.03875,-0.2128125
3.821,-0.03875,-0.2146875
3.822,-0.03875,-0.21625
3.823,-0.0390625,-0.2178125
3.824,-0.0390625,-0.2184375
3.825,-0.0390625,-0.219375
3.826,-0.0390625,-0.2196875
3.827,-0.0390625,-0.2196875
3.828,-0.0390625,-0.2196875
3.829,-0.0390625,-0.219375
3.83,-0.0390625,-0.2184375
3.831,-0.0390625,-0.2178125
3.832,-0.0390625,-0.2165625
3.833,-0.0390625,-0.2153125
3.834,-0.039375,-0.2134375
3.835,-0.039375,-0.2115625
3.836,-0.039375,-0.209375
3.837,-0.039375,-0.2071875
3.838,-0.039375,-0.2046875
3.839,-0.039375,-0.2021875
3.84,-0.0396875,-0.1990625
3.841,-0.0396875,-0.19625
3.842,-0.0396875,-0.1928125
3.843,-0.0396875,-0.19
3.844,-0.0396875,-0.1865625
3.845,-0.04,-0.183125
3.846,-0.04,-0.1796875
3.847,-0.0396875,-0.1765625
3.848,-0.0396875,-0.173125
3.849,-0.0396875,-0.1696875
3.85,-0.0396875,-0.1665625
3.851,-0.0396875,-0.163125
3.852,-0.0396875,-0.16
3.853,-0.0396875,-0.1571875
3.854,-0.0396875,-0.1540625
3.855,-0.0396875,-0.15125
3.856,-0.0396875,-0.1484375
3.857,-0.0396875,-0.1459375
3.858,-0.0396875,-0.143125
3.859,-0.0396875,-0.140625
3.86,-0.0396875,-0.1384375
3.861,-0.0396875,-0.13625
3.862,-0.0396875,-0.1340625
3.863,-0.0396875,-0.1321875
3.864,-0.0396875,-0.1303125
3.865,-0.0396875,-0.1284375
3.866,-0.04,-0.126875
3.867,-0.04,-0.125625
3.868,-0.04,-0.1240625
3.869,-0.04,-0.1225
3.87,-0.04,-0.12125
3.871,-0.0403125,-0.1203125
3.872,-0.0403125,-0.1190625
3.873,-0.0403125,-0.1178125
3.874,-0.0403125,-0.1171875
3.875,-0.0403125,-0.1159375
3.876,-0.0403125,-0.115
3.877,-0.0403125,-0.1140625
3.878,-0.040625,-0.113125
3.879,-0.040625,-0.1125
3.88,-0.040625,-0.1115625
3.881,-0.040625,-0.1109375
3.882,-0.040625,-0.11
3.883,-0.040625,-0.1090625
3.884,-0.0409375,-0.1084375
3.885,-0.0409375,-0.1078125
3.886,-0.0409375,-0.106875
3.887,-0.04125,-0.1065625
3.888,-0.04125,-0.105625
3.889,-0.04125,-0.1053125
3.89,-0.0415625,-0.104375
3.891,-0.0415625,-0.1040625
3.892,-0.0415625,-0.10375
3.893,-0.041875,-0.103125
3.894,-0.041875,-0.1028125
3.895,-0.0421875,-0.1021875
3.896,-0.0425,-0.1021875
3.897,-0.0425,-0.101875
3.898,-0.0428125,-0.10125
3.899,-0.0428125,-0.10125
3.9,-0.043125,-0.10125
3.901,-0.043125,-0.10125
3.902,-0.043125,-0.10125
3.903,-0.0434375,-0.10125
3.904,-0.0434375,-0.10125
3.905,-0.04375,-0.1015625
3.906,-0.04375,-0.101875
3.907,-0.04375,-0.1021875
3.908,-0.0440625,-0.1025
3.909,-0.0440625,-0.1034375
3.91,-0.044375,-0.1040625
3.911,-0.044375,-0.104375
3.912,-0.0446875,-0.1053125
3.913,-0.0446875,-0.10625
3.914,-0.0446875,-0.1071875
3.915,-0.045,-0.108125
3.916,-0.045,-0.109375
3.917,-0.045,-0.110625
3.918,-0.0453125,-0.111875
3.919,-0.0453125,-0.113125
3.92,-0.0453125,-0.114375
3.921,-0.0453125,-0.1159375
3.922,-0.045625,-0.1175
3.923,-0.045625,-0.119375
3.924,-0.045625,-0.1209375
3.925,-0.045625,-0.1228125
3.926,-0.045625,-0.124375
3.927,-0.045625,-0.1265625
3.928,-0.045625,-0.128125
3.929,-0.045625,-0.1303125
3.93,-0.045625,-0.131875
3.931,-0.0453125,-0.1334375
3.932,-0.0453125,-0.1353125
3.933,-0.0453125,-0.136875
3.934,-0.0453125,-0.13875
3.935,-0.0453125,-0.14
3.936,-0.0453125,-0.14125
3.937,-0.0453125,-0.1425
3.938,-0.0453125,-0.14375
3.939,-0.0453125,-0.144375
3.94,-0.0453125,-0.1453125
3.941,-0.0453125,-0.1459375
3.942,-0.0453125,-0.14625
3.943,-0.045,-0.146875
3.944,-0.045,-0.146875
3.945,-0.045,-0.146875
3.946,-0.045,-0.146875
3.947,-0.045,-0.1465625
3.948,-0.045,-0.14625
3.949,-0.045,-0.145625
3.95,-0.045,-0.145
3.951,-0.045,-0.1440625
3.952,-0.045,-0.143125
3.953,-0.045,-0.1421875
3.954,-0.045,-0.1409375
3.955,-0.045,-0.139375
3.956,-0.045,-0.138125
3.957,-0.045,-0.1365625
3.958,-0.045,-0.1346875
3.959,-0.045,-0.133125
3.96,-0.0453125,-0.1315625
3.961,-0.0453125,-0.13
3.962,-0.0453125,-0.1284375
3.963,-0.0453125,-0.126875
3.964,-0.0453125,-0.125625
3.965,-0.045625,-0.124375
3.966,-0.045625,-0.123125
3.967,-0.045625,-0.1225
3.968,-0.0459375,-0.1215625
3.969,-0.0459375,-0.12125
3.97,-0.0459375,-0.120625
3.971,-0.04625,-0.1203125
3.972,-0.04625,-0.1203125
3.973,-0.04625,-0.120625
3.974,-0.0465625,-0.120625
3.975,-0.0465625,-0.120625
3.976,-0.0465625,-0.1209375
3.977,-0.046875,-0.12125
3.978,-0.046875,-0.1215625
3.979,-0.046875,-0.121875
3.98,-0.0471875,-0.1221875
3.981,-0.0471875,-0.1228125
3.982,-0.0471875,-0.1228125
3.983,-0.0475,-0.1234375
3.984,-0.0475,-0.12375
3.985,-0.0475,-0.1240625
3.986,-0.0475,-0.1240625
3.987,-0.0475,-0.124375
3.988,-0.0478125,-0.124375
3.989,-0.0478125,-0.124375
3.99,-0.0478125,-0.124375
3.991,-0.0478125,-0.1240625
3.992,-0.0478125,-0.12375
3.993,-0.0478125,-0.123125
3.994,-0.0475,-0.1225
3.995,-0.0475,-0.1215625
3.996,-0.0475,-0.1203125
3.997,-0.0475,-0.1190625
3.998,-0.0475,-0.1175
3.999,-0.0475,-0.1159375
4,-0.0471875,-0.1140625
4.001,-0.0471875,-0.111875
4.002,-0.0471875,-0.11
4.003,-0.046875,-0.1075
4.004,-0.046875,-0.1053125
4.005,-0.046875,-0.1028125
4.006,-0.0465625,-0.1003125
4.007,-0.0465625,-0.098125
4.008,-0.04625,-0.095625
4.009,-0.04625,-0.093125
4.01,-0.0459375,-0.090625
4.011,-0.0459375,-0.088125
4.012,-0.045625,-0.085625
4.013,-0.045625,-0.083125
4.014,-0.0453125,-0.0809375
4.015,-0.045,-0.0784375
4.016,-0.045,-0.0759375
4.017,-0.0446875,-0.07375
4.018,-0.0446875,-0.0715625
4.019,-0.044375,-0.069375
4.02,-0.044375,-0.0671875
4.021,-0.044375,-0.065
4.022,-0.0440625,-0.0634375
4.023,-0.0440625,-0.06125
4.024,-0.0440625,-0.0596875
4.025,-0.04375,-0.0578125
4.026,-0.04375,-0.0565625
4.027,-0.04375,-0.055
4.028,-0.0434375,-0.05375
4.029,-0.0434375,-0.0528125
4.03,-0.0434375,-0.0515625
4.031,-0.0434375,-0.050625
4.032,-0.0434375,-0.0496875
4.033,-0.043125,-0.0490625
4.034,-0.043125,-0.0484375
4.035,-0.043125,-0.0478125
4.036,-0.043125,-0.0471875
4.037,-0.043125,-0.046875
4.038,-0.043125,-0.04625
4.039,-0.043125,-0.0459375
4.04,-0.043125,-0.045625
4.041,-0.043125,-0.0453125
4.042,-0.0428125,-0.045
4.043,-0.0428125,-0.045
4.044,-0.0428125,-0.045
4.045,-0.0428125,-0.0446875
4.046,-0.0428125,-0.0446875
4.047,-0.0425,-0.045
4.048,-0.0425,-0.045
4.049,-0.0425,-0.045
4.05,-0.0421875,-0.045
4.051,-0.0421875,-0.0453125
4.052,-0.0421875,-0.045625
4.053,-0.041875,-0.0459375
4.054,-0.0415625,-0.0459375
4.055,-0.04125,-0.0465625
4.056,-0.04125,-0.0465625
4.057,-0.0409375,-0.0471875
4.058,-0.040625,-0.0475
4.059,-0.040625,-0.0475
4.06,-0.0403125,-0.0478125
4.061,-0.04,-0.048125
4.062,-0.04,-0.048125
4.063,-0.039375,-0.048125
4.064,-0.039375,-0.048125
4.065,-0.0390625,-0.048125
4.066,-0.03875,-0.048125
4.067,-0.0384375,-0.048125
4.068,-0.038125,-0.0478125
4.069,-0.0378125,-0.0475
4.07,-0.0375,-0.0471875
4.071,-0.0371875,-0.046875
4.072,-0.036875,-0.0465625
4.073,-0.0365625,-0.04625
4.074,-0.03625,-0.045625
4.075,-0.03625,-0.0453125
4.076,-0.0359375,-0.0446875
4.077,-0.0353125,-0.044375
4.078,-0.0353125,-0.0440625
4.079,-0.0346875,-0.0434375
4.08,-0.0346875,-0.043125
4.081,-0.034375,-0.0428125
4.082,-0.0340625,-0.0421875
4.083,-0.0340625,-0.041875
4.084,-0.0334375,-0.0415625
4.085,-0.0334375,-0.04125
4.086,-0.033125,-0.040625
4.087,-0.0328125,-0.0403125
4.088,-0.0328125,-0.04
4.089,-0.0325,-0.039375
4.09,-0.0325,-0.0390625
4.091,-0.0325,-0.03875
4.092,-0.0321875,-0.038125
4.093,-0.0321875,-0.0378125
4.094,-0.031875,-0.0371875
4.095,-0.031875,-0.036875
4.096,-0.031875,-0.03625
4.097,-0.031875,-0.0359375
4.098,-0.031875,-0.035625
4.099,-0.031875,-0.0353125
4.1,-0.031875,-0.0346875
4.101,-0.031875,-0.0346875
4.102,-0.031875,-0.034375
4.103,-0.031875,-0.034375
4.104,-0.0321875,-0.0340625
4.105,-0.0321875,-0.0340625
4.106,-0.0321875,-0.0340625
4.107,-0.0325,-0.0340625
4.108,-0.0325,-0.034375
4.109,-0.0325,-0.034375
4.11,-0.0328125,-0.034375
4.111,-0.033125,-0.0346875
4.112,-0.033125,-0.035
4.113,-0.0334375,-0.035
4.114,-0.03375,-0.035625
4.115,-0.03375,-0.035625
4.116,-0.0340625,-0.03625
4.117,-0.0346875,-0.0365625
4.118,-0.0346875,-0.036875
4.119,-0.0353125,-0.0375
4.12,-0.0353125,-0.0378125
4.121,-0.0359375,-0.038125
4.122,-0.03625,-0.0390625
4.123,-0.0365625,-0.039375
4.124,-0.036875,-0.0396875
4.125,-0.0371875,-0.0403125
4.126,-0.0375,-0.04125
4.127,-0.038125,-0.0415625
4.128,-0.0384375,-0.0421875
4.129,-0.03875,-0.0425
4.13,-0.0390625,-0.0434375
4.131,-0.039375,-0.04375
4.132,-0.04,-0.044375
4.133,-0.04,-0.0446875
4.134,-0.040625,-0.0453125
4.135,-0.040625,-0.045625
4.136,-0.0409375,-0.0459375
4.137,-0.04125,-0.04625
4.138,-0.0415625,-0.0465625
4.139,-0.0415625,-0.046875
4.14,-0.0415625,-0.046875
4.141,-0.041875,-0.0475
4.142,-0.041875,-0.0475
4.143,-0.041875,-0.0478125
4.144,-0.041875,-0.048125
4.145,-0.041875,-0.0484375
4.146,-0.041875,-0.04875
4.147,-0.0415625,-0.0490625
4.148,-0.0415625,-0.049375
4.149,-0.0415625,-0.0496875
4.15,-0.0409375,-0.0503125
4.151,-0.0409375,-0.050625
4.152,-0.040625,-0.0509375
4.153,-0.04,-0.0515625
4.154,-0.0396875,-0.051875
4.155,-0.039375,-0.0521875
4.156,-0.03875,-0.0528125
4.157,-0.038125,-0.0528125
4.158,-0.0378125,-0.053125
4.159,-0.0375,-0.05375
4.16,-0.0365625,-0.0540625
4.161,-0.0359375,-0.0540625
4.162,-0.035625,-0.054375
4.163,-0.0346875,-0.054375
4.164,-0.0340625,-0.054375
4.165,-0.033125,-0.0546875
4.166,-0.0328125,-0.0546875
4.167,-0.031875,-0.054375
4.168,-0.03125,-0.054375
4.169,-0.0303125,-0.054375
4.17,-0.0296875,-0.05375
4.171,-0.02875,-0.0534375
4.172,-0.028125,-0.053125
4.173,-0.0275,-0.0525
4.174,-0.0265625,-0.0515625
4.175,-0.025625,-0.0509375
4.176,-0.025,-0.0496875
4.177,-0.0240625,-0.04875
4.178,-0.0234375,-0.0475
4.179,-0.0228125,-0.0459375
4.18,-0.021875,-0.0446875
4.181,-0.02125,-0.0428125
4.182,-0.020625,-0.0415625
4.183,-0.0196875,-0.04
4.184,-0.019375,-0.038125
4.185,-0.0184375,-0.036875
4.186,-0.018125,-0.035
4.187,-0.0171875,-0.03375
4.188,-0.016875,-0.0325
4.189,-0.0159375,-0.03125
4.19,-0.015625,-0.03
4.191,-0.0146875,-0.02875
4.192,-0.014375,-0.0278125
4.193,-0.0134375,-0.026875
4.194,-0.013125,-0.02625
4.195,-0.0125,-0.0253125
4.196,-0.011875,-0.0246875
4.197,-0.0115625,-0.024375
4.198,-0.01125,-0.0240625
4.199,-0.010625,-0.0234375
4.2,-0.0103125,-0.023125
4.201,-0.0096875,-0.023125
4.202,-0.0096875,-0.0228125
4.203,-0.0090625,-0.0225
4.204,-0.00875,-0.0225
4.205,-0.0084375,-0.0225
4.206,-0.008125,-0.0225
4.207,-0.008125,-0.0228125
4.208,-0.0075,-0.023125
4.209,-0.0075,-0.0234375
4.21,-0.0071875,-0.02375
4.211,-0.006875,-0.024375
4.212,-0.006875,-0.0246875
4.213,-0.0065625,-0.025625
4.214,-0.00625,-0.02625
4.215,-0.00625,-0.026875
4.216,-0.0059375,-0.0278125
4.217,-0.0059375,-0.02875
4.218,-0.0059375,-0.0296875
4.219,-0.005625,-0.0303125
4.22,-0.005625,-0.03125
4.221,-0.0053125,-0.0321875
4.222,-0.0053125,-0.0328125
4.223,-0.0053125,-0.03375
4.224,-0.0053125,-0.034375
4.225,-0.0053125,-0.0353125
4.226,-0.005,-0.035625
4.227,-0.005,-0.03625
4.228,-0.005,-0.0365625
4.229,-0.005,-0.0371875
4.23,-0.005,-0.0371875
4.231,-0.005,-0.0378125
4.232,-0.005,-0.0378125
4.233,-0.005,-0.038125
4.234,-0.005,-0.038125
4.235,-0.005,-0.038125
4.236,-0.005,-0.038125
4.237,-0.005,-0.038125
4.238,-0.005,-0.0378125
4.239,-0.005,-0.0375
4.24,-0.005,-0.0371875
4.241,-0.005,-0.036875
4.242,-0.005,-0.0359375
4.243,-0.005,-0.035625
4.244,-0.005,-0.0346875
4.245,-0.005,-0.03375
4.246,-0.005,-0.033125
4.247,-0.005,-0.031875
4.248,-0.005,-0.030625
4.249,-0.0053125,-0.029375
4.25,-0.0053125,-0.0278125
4.251,-0.0053125,-0.02625
4.252,-0.005625,-0.0246875
4.253,-0.005625,-0.0228125
4.254,-0.005625,-0.02125
4.255,-0.0059375,-0.0190625
4.256,-0.0059375,-0.0175
4.257,-0.00625,-0.0153125
4.258,-0.00625,-0.0134375
4.259,-0.0065625,-0.011875
4.26,-0.006875,-0.0096875
4.261,-0.006875,-0.008125
4.262,-0.0071875,-0.00625
4.263,-0.0075,-0.0046875
4.264,-0.0075,-0.003125
4.265,-0.0078125,-0.0015625
4.266,-0.008125,0
4.267,-0.008125,0.00125
4.268,-0.008125,0.0025
4.269,-0.0084375,0.0040625
4.27,-0.00875,0.0053125
4.271,-0.00875,0.0065625
4.272,-0.009375,0.0078125
4.273,-0.009375,0.0090625
4.274,-0.0096875,0.01
4.275,-0.01,0.01125
4.276,-0.01,0.0125
4.277,-0.010625,0.0134375
4.278,-0.0109375,0.014375
4.279,-0.0109375,0.0153125
4.28,-0.0115625,0.01625
4.281,-0.0115625,0.0171875
4.282,-0.0121875,0.0178125
4.283,-0.0121875,0.018125
4.284,-0.0128125,0.01875
4.285,-0.0128125,0.0190625
4.286,-0.0134375,0.0190625
4.287,-0.0134375,0.0190625
4.288,-0.0140625,0.0190625
4.289,-0.0140625,0.01875
4.29,-0.0146875,0.018125
4.291,-0.015,0.0178125
4.292,-0.0153125,0.016875
4.293,-0.015625,0.01625
4.294,-0.0159375,0.0153125
4.295,-0.01625,0.014375
4.296,-0.0165625,0.013125
4.297,-0.016875,0.011875
4.298,-0.0175,0.0103125
4.299,-0.0178125,0.0090625
4.3,-0.018125,0.0071875
4.301,-0.0184375,0.005625
4.302,-0.0190625,0.0034375
4.303,-0.0190625,0.001875
4.304,-0.0196875,-0.0003125
4.305,-0.02,-0.0025
4.306,-0.0203125,-0.0046875
4.307,-0.020625,-0.0071875
4.308,-0.0209375,-0.009375
4.309,-0.02125,-0.011875
4.31,-0.0215625,-0.014375
4.311,-0.021875,-0.0165625
4.312,-0.0221875,-0.0190625
4.313,-0.0225,-0.02125
4.314,-0.0228125,-0.02375
4.315,-0.023125,-0.0259375
4.316,-0.023125,-0.0278125
4.317,-0.0234375,-0.03
4.318,-0.02375,-0.0321875
4.319,-0.024375,-0.0340625
4.32,-0.024375,-0.035625
4.321,-0.0246875,-0.0371875
4.322,-0.025,-0.0390625
4.323,-0.025,-0.040625
4.324,-0.0253125,-0.0421875
4.325,-0.025625,-0.0434375
4.326,-0.0259375,-0.045
4.327,-0.0259375,-0.04625
4.328,-0.02625,-0.0475
4.329,-0.02625,-0.04875
4.33,-0.02625,-0.05
4.331,-0.0265625,-0.05125
4.332,-0.0265625,-0.0521875
4.333,-0.026875,-0.053125
4.334,-0.026875,-0.054375
4.335,-0.026875,-0.055
4.336,-0.026875,-0.0559375
4.337,-0.026875,-0.056875
4.338,-0.0271875,-0.0571875
4.339,-0.0271875,-0.058125
4.34,-0.0271875,-0.0584375
4.341,-0.0271875,-0.059375
4.342,-0.0271875,-0.0596875
4.343,-0.026875,-0.0603125
4.344,-0.026875,-0.0609375
4.345,-0.026875,-0.06125
4.346,-0.0265625,-0.0615625
4.347,-0.0265625,-0.0621875
4.348,-0.02625,-0.0625
4.349,-0.02625,-0.063125
4.35,-0.02625,-0.0634375
4.351,-0.025625,-0.06375
4.352,-0.025625,-0.0640625
4.353,-0.0253125,-0.064375
4.354,-0.025,-0.064375
4.355,-0.0246875,-0.064375
4.356,-0.0246875,-0.0640625
4.357,-0.024375,-0.06375
4.358,-0.0240625,-0.0634375
4.359,-0.02375,-0.063125
4.36,-0.02375,-0.0625
4.361,-0.023125,-0.0615625
4.362,-0.023125,-0.060625
4.363,-0.0228125,-0.0596875
4.364,-0.0225,-0.05875
4.365,-0.0225,-0.0575
4.366,-0.021875,-0.05625
4.367,-0.021875,-0.055
4.368,-0.0215625,-0.05375
4.369,-0.02125,-0.0525
4.37,-0.02125,-0.05125
4.371,-0.02125,-0.0496875
4.372,-0.0209375,-0.0484375
4.373,-0.020625,-0.0471875
4.374,-0.020625,-0.045625
4.375,-0.0203125,-0.044375
4.376,-0.0203125,-0.043125
4.377,-0.0203125,-0.041875
4.378,-0.02,-0.040625
4.379,-0.02,-0.039375
4.38,-0.02,-0.038125
4.381,-0.0196875,-0.036875
4.382,-0.0196875,-0.035625
4.383,-0.0196875,-0.034375
4.384,-0.0196875,-0.0334375
4.385,-0.0196875,-0.0325
4.386,-0.019375,-0.0315625
4.387,-0.019375,-0.030625
4.388,-0.019375,-0.0303125
4.389,-0.019375,-0.029375
4.39,-0.019375,-0.0290625
4.391,-0.019375,-0.02875
4.392,-0.0196875,-0.0284375
4.393,-0.0196875,-0.0284375
4.394,-0.0196875,-0.0284375
4.395,-0.0196875,-0.0284375
4.396,-0.0196875,-0.0284375
4.397,-0.0196875,-0.02875
4.398,-0.0196875,-0.029375
4.399,-0.0196875,-0.0296875
4.4,-0.0196875,-0.0303125
4.401,-0.0196875,-0.03125
4.402,-0.0196875,-0.031875
4.403,-0.019375,-0.0328125
4.404,-0.019375,-0.03375
4.405,-0.019375,-0.035
4.406,-0.019375,-0.03625
4.407,-0.019375,-0.0375
4.408,-0.019375,-0.03875
4.409,-0.019375,-0.0403125
4.41,-0.019375,-0.0421875
4.411,-0.019375,-0.0434375
4.412,-0.019375,-0.0453125
4.413,-0.019375,-0.046875
4.414,-0.019375,-0.04875
4.415,-0.019375,-0.05
4.416,-0.019375,-0.0515625
4.417,-0.019375,-0.0534375
4.418,-0.0190625,-0.0546875
4.419,-0.0190625,-0.0559375
4.42,-0.0190625,-0.0571875
4.421,-0.0190625,-0.0584375
4.422,-0.0190625,-0.0596875
4.423,-0.01875,-0.060625
4.424,-0.01875,-0.061875
4.425,-0.01875,-0.0625
4.426,-0.01875,-0.0634375
4.427,-0.01875,-0.0640625
4.428,-0.0184375,-0.065
4.429,-0.0184375,-0.0659375
4.43,-0.0184375,-0.0665625
4.431,-0.0184375,-0.0675
4.432,-0.0184375,-0.0678125
4.433,-0.0184375,-0.068125
4.434,-0.0184375,-0.06875
4.435,-0.0184375,-0.069375
4.436,-0.0184375,-0.0696875
4.437,-0.0184375,-0.07
4.438,-0.0184375,-0.0703125
4.439,-0.0184375,-0.0703125
4.44,-0.01875,-0.070625
4.441,-0.01875,-0.070625
4.442,-0.01875,-0.070625
4.443,-0.01875,-0.070625
4.444,-0.01875,-0.070625
4.445,-0.01875,-0.0703125
4.446,-0.01875,-0.0703125
4.447,-0.0190625,-0.0703125
4.448,-0.0190625,-0.0703125
4.449,-0.0190625,-0.070625
4.45,-0.0190625,-0.070625
4.451,-0.0190625,-0.070625
4.452,-0.0190625,-0.0709375
4.453,-0.0190625,-0.07125
4.454,-0.0190625,-0.07125
4.455,-0.0190625,-0.0715625
4.456,-0.0190625,-0.0715625
4.457,-0.0190625,-0.071875
4.458,-0.0190625,-0.0721875
4.459,-0.01875,-0.0721875
4.46,-0.01875,-0.0721875
4.461,-0.01875,-0.0721875
4.462,-0.0184375,-0.0721875
4.463,-0.018125,-0.0721875
4.464,-0.0178125,-0.071875
4.465,-0.0178125,-0.0715625
4.466,-0.0175,-0.07125
4.467,-0.0175,-0.070625
4.468,-0.0171875,-0.0703125
4.469,-0.0165625,-0.069375
4.47,-0.0165625,-0.06875
4.471,-0.0159375,-0.0678125
4.472,-0.0159375,-0.0671875
4.473,-0.0153125,-0.0659375
4.474,-0.0153125,-0.065
4.475,-0.0146875,-0.0640625
