Interval=,0.001 s,
ExcelDateTime=,4.54E+04,11:43.4
TimeFormat=,StartOfBlock,
DateFormat=,,
ChannelTitle=,Channel 3,Channel 4
Range=,10.000 mV,10.000 mV 

0.001,0,0
0.002,0,-0.0003125
0.003,0,-0.0003125
0.004,0.0003125,-0.0003125
0.005,0.0009375,-0.0003125
0.006,0.00125,-0.0003125
0.007,0.0021875,-0.000625
0.008,0.0034375,-0.0009375
0.009,0.0046875,-0.00125
0.01,0.00625,-0.001875
0.011,0.0084375,-0.0021875
0.012,0.01,-0.0028125
0.013,0.0125,-0.00375
0.014,0.0146875,-0.0046875
0.015,0.016875,-0.0053125
0.016,0.01875,-0.0065625
0.017,0.020625,-0.0071875
0.018,0.0221875,-0.0084375
0.019,0.023125,-0.0090625
0.02,0.0240625,-0.01
0.021,0.0240625,-0.0109375
0.022,0.0240625,-0.01125
0.023,0.0234375,-0.0121875
0.024,0.023125,-0.0125
0.025,0.0221875,-0.013125
0.026,0.0215625,-0.013125
0.027,0.0209375,-0.01375
0.028,0.020625,-0.01375
0.029,0.0203125,-0.014375
0.03,0.0203125,-0.014375
0.031,0.020625,-0.0146875
0.032,0.0215625,-0.015
0.033,0.0225,-0.015625
0.034,0.023125,-0.0159375
0.035,0.0240625,-0.01625
0.036,0.0246875,-0.016875
0.037,0.025,-0.0171875
0.038,0.0246875,-0.0175
0.039,0.0240625,-0.0178125
0.04,0.0228125,-0.0178125
0.041,0.020625,-0.0175
0.042,0.018125,-0.0171875
0.043,0.0153125,-0.016875
0.044,0.011875,-0.01625
0.045,0.00875,-0.0153125
0.046,0.005625,-0.0146875
0.047,0.0025,-0.0134375
0.048,0,-0.0125
0.049,-0.001875,-0.01125
0.05,-0.0028125,-0.01
0.051,-0.0034375,-0.0090625
0.052,-0.003125,-0.0084375
0.053,-0.0021875,-0.0075
0.054,-0.0009375,-0.0065625
0.055,0.000625,-0.00625
0.056,0.0028125,-0.0059375
0.057,0.004375,-0.0053125
0.058,0.0059375,-0.005
0.059,0.0071875,-0.004375
0.06,0.0075,-0.0040625
0.061,0.0075,-0.003125
0.062,0.006875,-0.0021875
0.063,0.005625,-0.0015625
0.064,0.004375,-0.0003125
0.065,0.0021875,0.00125
0.066,0.000625,0.0025
0.067,-0.0009375,0.004375
0.068,-0.0025,0.0059375
0.069,-0.003125,0.008125
0.07,-0.0034375,0.0096875
0.071,-0.003125,0.0115625
0.072,-0.0025,0.013125
0.073,-0.00125,0.0153125
0.074,0.000625,0.016875
0.075,0.0025,0.0190625
0.076,0.0040625,0.020625
0.077,0.005625,0.0228125
0.078,0.006875,0.025
0.079,0.0075,0.0271875
0.08,0.0071875,0.0296875
0.081,0.00625,0.0325
0.082,0.0046875,0.035625
0.083,0.0025,0.0390625
0.084,-0.0003125,0.0428125
0.085,-0.00375,0.046875
0.086,-0.006875,0.05125
0.087,-0.010625,0.0559375
0.088,-0.01375,0.0609375
0.089,-0.0165625,0.0659375
0.09,-0.0190625,0.07125
0.091,-0.02125,0.0765625
0.092,-0.0228125,0.081875
0.093,-0.0240625,0.0875
0.094,-0.0253125,0.0928125
0.095,-0.0259375,0.0984375
0.096,-0.0271875,0.104375
0.097,-0.0284375,0.1103125
0.098,-0.03,0.11625
0.099,-0.0325,0.1225
0.1,-0.035625,0.1290625
0.101,-0.039375,0.135625
0.102,-0.04375,0.1428125
0.103,-0.04875,0.15
0.104,-0.0546875,0.1575
0.105,-0.060625,0.1653125
0.106,-0.0665625,0.1734375
0.107,-0.0728125,0.1815625
0.108,-0.07875,0.19
0.109,-0.0840625,0.1984375
0.11,-0.0890625,0.206875
0.111,-0.0934375,0.2153125
0.112,-0.0975,0.22375
0.113,-0.100625,0.2321875
0.114,-0.1040625,0.24
0.115,-0.106875,0.2484375
0.116,-0.1096875,0.25625
0.117,-0.1128125,0.2640625
0.118,-0.11625,0.271875
0.119,-0.12,0.2796875
0.12,-0.1246875,0.2871875
0.121,-0.1296875,0.295
0.122,-0.1353125,0.3028125
0.123,-0.1415625,0.310625
0.124,-0.1478125,0.3184375
0.125,-0.1546875,0.3259375
0.126,-0.16125,0.33375
0.127,-0.1678125,0.3415625
0.128,-0.1740625,0.3490625
0.129,-0.18,0.35625
0.13,-0.185,0.3634375
0.131,-0.189375,0.3703125
0.132,-0.193125,0.376875
0.133,-0.19625,0.383125
0.134,-0.199375,0.3890625
0.135,-0.201875,0.394375
0.136,-0.2040625,0.3996875
0.137,-0.2065625,0.4046875
0.138,-0.2090625,0.4090625
0.139,-0.211875,0.41375
0.14,-0.215625,0.4178125
0.141,-0.219375,0.4221875
0.142,-0.22375,0.4259375
0.143,-0.22875,0.43
0.144,-0.23375,0.43375
0.145,-0.23875,0.4371875
0.146,-0.2440625,0.4409375
0.147,-0.2490625,0.4440625
0.148,-0.25375,0.4475
0.149,-0.2578125,0.4503125
0.15,-0.2609375,0.453125
0.151,-0.26375,0.455625
0.152,-0.265625,0.4575
0.153,-0.2671875,0.459375
0.154,-0.268125,0.4609375
0.155,-0.2684375,0.4621875
0.156,-0.269375,0.4628125
0.157,-0.2696875,0.46375
0.158,-0.270625,0.4640625
0.159,-0.2715625,0.464375
0.16,-0.2734375,0.4646875
0.161,-0.275625,0.4646875
0.162,-0.278125,0.4646875
0.163,-0.28125,0.4646875
0.164,-0.2846875,0.4646875
0.165,-0.288125,0.464375
0.166,-0.291875,0.464375
0.167,-0.2953125,0.4640625
0.168,-0.2984375,0.46375
0.169,-0.3009375,0.4634375
0.17,-0.303125,0.4625
0.171,-0.304375,0.4615625
0.172,-0.3053125,0.4603125
0.173,-0.3053125,0.4590625
0.174,-0.3053125,0.4575
0.175,-0.3046875,0.4553125
0.176,-0.304375,0.453125
0.177,-0.30375,0.4509375
0.178,-0.30375,0.4484375
0.179,-0.30375,0.4459375
0.18,-0.3046875,0.443125
0.181,-0.3059375,0.4403125
0.182,-0.3075,0.4378125
0.183,-0.3096875,0.435
0.184,-0.3121875,0.4325
0.185,-0.315,0.43
0.186,-0.3175,0.4271875
0.187,-0.32,0.4246875
0.188,-0.321875,0.4221875
0.189,-0.3234375,0.4196875
0.19,-0.324375,0.4165625
0.191,-0.3246875,0.4140625
0.192,-0.324375,0.4109375
0.193,-0.3234375,0.4078125
0.194,-0.321875,0.404375
0.195,-0.3203125,0.4009375
0.196,-0.31875,0.3971875
0.197,-0.3165625,0.3934375
0.198,-0.3153125,0.3896875
0.199,-0.3140625,0.3859375
0.2,-0.313125,0.3821875
0.201,-0.313125,0.37875
0.202,-0.3134375,0.375
0.203,-0.31375,0.3715625
0.204,-0.3146875,0.368125
0.205,-0.3159375,0.365
0.206,-0.316875,0.361875
0.207,-0.3178125,0.35875
0.208,-0.318125,0.3559375
0.209,-0.318125,0.353125
0.21,-0.3175,0.35
0.211,-0.31625,0.3471875
0.212,-0.314375,0.34375
0.213,-0.311875,0.340625
0.214,-0.3090625,0.3375
0.215,-0.3059375,0.33375
0.216,-0.3025,0.330625
0.217,-0.2996875,0.326875
0.218,-0.2965625,0.3234375
0.219,-0.2940625,0.3203125
0.22,-0.2925,0.3165625
0.221,-0.2909375,0.3134375
0.222,-0.2896875,0.310625
0.223,-0.289375,0.3075
0.224,-0.289375,0.304375
0.225,-0.289375,0.301875
0.226,-0.289375,0.299375
0.227,-0.289375,0.296875
0.228,-0.2890625,0.2946875
0.229,-0.2884375,0.2921875
0.23,-0.286875,0.2896875
0.231,-0.285,0.2875
0.232,-0.2825,0.285
0.233,-0.2796875,0.2825
0.234,-0.2765625,0.2796875
0.235,-0.273125,0.276875
0.236,-0.269375,0.2740625
0.237,-0.2659375,0.27125
0.238,-0.2628125,0.268125
0.239,-0.2603125,0.265625
0.24,-0.2578125,0.2625
0.241,-0.25625,0.26
0.242,-0.2553125,0.2575
0.243,-0.2546875,0.255
0.244,-0.254375,0.2528125
0.245,-0.254375,0.250625
0.246,-0.2546875,0.2484375
0.247,-0.2546875,0.246875
0.248,-0.2540625,0.2446875
0.249,-0.25375,0.243125
0.25,-0.2525,0.2409375
0.251,-0.2503125,0.239375
0.252,-0.248125,0.2371875
0.253,-0.245625,0.2353125
0.254,-0.2425,0.233125
0.255,-0.2390625,0.2309375
0.256,-0.235625,0.22875
0.257,-0.2328125,0.22625
0.258,-0.2296875,0.224375
0.259,-0.2271875,0.221875
0.26,-0.2253125,0.22
0.261,-0.2240625,0.218125
0.262,-0.2234375,0.2159375
0.263,-0.223125,0.214375
0.264,-0.223125,0.2125
0.265,-0.22375,0.21125
0.266,-0.2240625,0.21
0.267,-0.224375,0.20875
0.268,-0.224375,0.2075
0.269,-0.2240625,0.20625
0.27,-0.223125,0.205
0.271,-0.221875,0.20375
0.272,-0.22,0.2025
0.273,-0.2175,0.20125
0.274,-0.215,0.1996875
0.275,-0.211875,0.1978125
0.276,-0.20875,0.19625
0.277,-0.20625,0.194375
0.278,-0.20375,0.1928125
0.279,-0.2015625,0.19125
0.28,-0.2,0.189375
0.281,-0.19875,0.1878125
0.282,-0.1984375,0.18625
0.283,-0.1984375,0.185
0.284,-0.19875,0.18375
0.285,-0.199375,0.1825
0.286,-0.2,0.181875
0.287,-0.200625,0.180625
0.288,-0.200625,0.1796875
0.289,-0.2003125,0.1790625
0.29,-0.199375,0.1778125
0.291,-0.198125,0.1771875
0.292,-0.19625,0.1759375
0.293,-0.19375,0.1746875
0.294,-0.1909375,0.1734375
0.295,-0.188125,0.1721875
0.296,-0.185,0.1709375
0.297,-0.181875,0.169375
0.298,-0.179375,0.1678125
0.299,-0.1771875,0.1665625
0.3,-0.1753125,0.1653125
0.301,-0.1740625,0.1640625
0.302,-0.17375,0.163125
0.303,-0.1734375,0.1621875
0.304,-0.1734375,0.16125
0.305,-0.17375,0.1603125
0.306,-0.174375,0.16
0.307,-0.174375,0.159375
0.308,-0.174375,0.1590625
0.309,-0.1740625,0.1584375
0.31,-0.1728125,0.158125
0.311,-0.1715625,0.1571875
0.312,-0.169375,0.156875
0.313,-0.1665625,0.1559375
0.314,-0.16375,0.155
0.315,-0.160625,0.1540625
0.316,-0.1571875,0.153125
0.317,-0.154375,0.151875
0.318,-0.1515625,0.150625
0.319,-0.1490625,0.1496875
0.32,-0.1471875,0.1484375
0.321,-0.1459375,0.1475
0.322,-0.1453125,0.146875
0.323,-0.1453125,0.1459375
0.324,-0.1453125,0.1453125
0.325,-0.1459375,0.145
0.326,-0.1465625,0.144375
0.327,-0.146875,0.1440625
0.328,-0.1471875,0.14375
0.329,-0.146875,0.1434375
0.33,-0.14625,0.1428125
0.331,-0.145,0.1425
0.332,-0.143125,0.1415625
0.333,-0.1409375,0.1409375
0.334,-0.138125,0.14
0.335,-0.135625,0.139375
0.336,-0.1328125,0.138125
0.337,-0.13,0.136875
0.338,-0.1278125,0.135625
0.339,-0.1259375,0.134375
0.34,-0.1246875,0.133125
0.341,-0.12375,0.1321875
0.342,-0.12375,0.13125
0.343,-0.1240625,0.1303125
0.344,-0.125,0.1296875
0.345,-0.1259375,0.12875
0.346,-0.1271875,0.1284375
0.347,-0.128125,0.128125
0.348,-0.12875,0.1275
0.349,-0.129375,0.1271875
0.35,-0.1290625,0.1265625
0.351,-0.1284375,0.12625
0.352,-0.126875,0.1253125
0.353,-0.1253125,0.125
0.354,-0.1228125,0.12375
0.355,-0.1203125,0.1228125
0.356,-0.1178125,0.121875
0.357,-0.1153125,0.120625
0.358,-0.1134375,0.119375
0.359,-0.1115625,0.1184375
0.36,-0.1103125,0.1171875
0.361,-0.109375,0.1159375
0.362,-0.109375,0.1153125
0.363,-0.1096875,0.114375
0.364,-0.110625,0.11375
0.365,-0.1115625,0.1134375
0.366,-0.1125,0.1128125
0.367,-0.1134375,0.1128125
0.368,-0.1140625,0.1125
0.369,-0.1140625,0.1121875
0.37,-0.11375,0.111875
0.371,-0.1128125,0.111875
0.372,-0.1115625,0.11125
0.373,-0.1096875,0.1109375
0.374,-0.1071875,0.110625
0.375,-0.1046875,0.1096875
0.376,-0.101875,0.10875
0.377,-0.099375,0.108125
0.378,-0.0971875,0.1071875
0.379,-0.095,0.1065625
0.38,-0.09375,0.105625
0.381,-0.0928125,0.1046875
0.382,-0.0928125,0.104375
0.383,-0.0928125,0.1034375
0.384,-0.09375,0.103125
0.385,-0.0946875,0.1028125
0.386,-0.095625,0.1021875
0.387,-0.0965625,0.1021875
0.388,-0.0975,0.101875
0.389,-0.0975,0.1015625
0.39,-0.0975,0.1009375
0.391,-0.096875,0.100625
0.392,-0.095625,0.0996875
0.393,-0.0940625,0.0990625
0.394,-0.0915625,0.098125
0.395,-0.0896875,0.0975
0.396,-0.0871875,0.09625
0.397,-0.0846875,0.095
0.398,-0.083125,0.09375
0.399,-0.08125,0.0925
0.4,-0.0803125,0.09125
0.401,-0.08,0.0903125
0.402,-0.08,0.0890625
0.403,-0.080625,0.0884375
0.404,-0.0815625,0.0875
0.405,-0.0828125,0.0871875
0.406,-0.084375,0.08625
0.407,-0.085625,0.0859375
0.408,-0.0865625,0.085625
0.409,-0.0871875,0.085
0.41,-0.0871875,0.0846875
0.411,-0.0871875,0.084375
0.412,-0.08625,0.0834375
0.413,-0.085,0.083125
0.414,-0.0828125,0.0821875
0.415,-0.08125,0.08125
0.416,-0.0790625,0.0803125
0.417,-0.076875,0.079375
0.418,-0.0753125,0.078125
0.419,-0.0740625,0.0775
0.42,-0.073125,0.0765625
0.421,-0.0728125,0.075625
0.422,-0.073125,0.075
0.423,-0.07375,0.0746875
0.424,-0.0746875,0.0740625
0.425,-0.0759375,0.07375
0.426,-0.0771875,0.07375
0.427,-0.0784375,0.07375
0.428,-0.079375,0.07375
0.429,-0.08,0.0740625
0.43,-0.0796875,0.0740625
0.431,-0.079375,0.0740625
0.432,-0.078125,0.0740625
0.433,-0.0765625,0.0740625
0.434,-0.074375,0.07375
0.435,-0.0721875,0.073125
0.436,-0.07,0.0728125
0.437,-0.0678125,0.0725
0.438,-0.065625,0.071875
0.439,-0.064375,0.0709375
0.44,-0.0634375,0.070625
0.441,-0.0628125,0.0703125
0.442,-0.063125,0.0696875
0.443,-0.06375,0.0696875
0.444,-0.065,0.069375
0.445,-0.06625,0.069375
0.446,-0.068125,0.0696875
0.447,-0.0696875,0.0696875
0.448,-0.0709375,0.07
0.449,-0.071875,0.070625
0.45,-0.0725,0.0709375
0.451,-0.0728125,0.07125
0.452,-0.0725,0.0715625
0.453,-0.0721875,0.071875
0.454,-0.07125,0.0721875
0.455,-0.0703125,0.0721875
0.456,-0.069375,0.0721875
0.457,-0.0684375,0.0725
0.458,-0.0684375,0.0725
0.459,-0.0684375,0.0725
0.46,-0.0690625,0.0728125
0.461,-0.0703125,0.073125
0.462,-0.0725,0.0734375
0.463,-0.075,0.07375
0.464,-0.0784375,0.074375
0.465,-0.0815625,0.0753125
0.466,-0.0853125,0.07625
0.467,-0.0890625,0.076875
0.468,-0.0925,0.0778125
0.469,-0.0959375,0.0790625
0.47,-0.0984375,0.08
0.471,-0.1009375,0.0809375
0.472,-0.1028125,0.081875
0.473,-0.1040625,0.0825
0.474,-0.1053125,0.0834375
0.475,-0.10625,0.0840625
0.476,-0.106875,0.0846875
0.477,-0.1078125,0.085
0.478,-0.1090625,0.085625
0.479,-0.110625,0.08625
0.48,-0.1121875,0.086875
0.481,-0.115,0.0871875
0.482,-0.1178125,0.0878125
0.483,-0.12125,0.088125
0.484,-0.125,0.0890625
0.485,-0.12875,0.09
0.486,-0.133125,0.0903125
0.487,-0.136875,0.09125
0.488,-0.1403125,0.0915625
0.489,-0.1434375,0.0925
0.49,-0.1459375,0.0928125
0.491,-0.148125,0.093125
0.492,-0.149375,0.0934375
0.493,-0.1503125,0.0934375
0.494,-0.150625,0.0934375
0.495,-0.150625,0.093125
0.496,-0.15,0.0928125
0.497,-0.15,0.0921875
0.498,-0.1496875,0.091875
0.499,-0.1496875,0.09125
0.5,-0.1496875,0.0903125
0.501,-0.150625,0.09
0.502,-0.1515625,0.089375
0.503,-0.153125,0.0890625
0.504,-0.1546875,0.0884375
0.505,-0.1565625,0.088125
0.506,-0.1584375,0.0878125
0.507,-0.16,0.0875
0.508,-0.1615625,0.0871875
0.509,-0.1628125,0.086875
0.51,-0.163125,0.08625
0.511,-0.163125,0.0859375
0.512,-0.1625,0.085
0.513,-0.16125,0.084375
0.514,-0.159375,0.08375
0.515,-0.1575,0.0825
0.516,-0.1553125,0.0815625
0.517,-0.153125,0.0803125
0.518,-0.1509375,0.0790625
0.519,-0.149375,0.078125
0.52,-0.1478125,0.076875
0.521,-0.1465625,0.075625
0.522,-0.14625,0.075
0.523,-0.14625,0.07375
0.524,-0.14625,0.073125
0.525,-0.1465625,0.0721875
0.526,-0.1471875,0.071875
0.527,-0.1478125,0.07125
0.528,-0.148125,0.0709375
0.529,-0.148125,0.0703125
0.53,-0.1475,0.07
0.531,-0.1465625,0.0696875
0.532,-0.1453125,0.06875
0.533,-0.143125,0.0684375
0.534,-0.14125,0.0675
0.535,-0.13875,0.066875
0.536,-0.1359375,0.065625
0.537,-0.1334375,0.065
0.538,-0.13125,0.06375
0.539,-0.1290625,0.0625
0.54,-0.1275,0.0615625
0.541,-0.12625,0.060625
0.542,-0.125625,0.0596875
0.543,-0.1253125,0.0590625
0.544,-0.1253125,0.058125
0.545,-0.1259375,0.0578125
0.546,-0.12625,0.056875
0.547,-0.1265625,0.0565625
0.548,-0.126875,0.05625
0.549,-0.126875,0.055625
0.55,-0.1265625,0.0553125
0.551,-0.125625,0.0546875
0.552,-0.124375,0.054375
0.553,-0.1228125,0.0534375
0.554,-0.120625,0.0525
0.555,-0.118125,0.051875
0.556,-0.1159375,0.0509375
0.557,-0.11375,0.0496875
0.558,-0.11125,0.04875
0.559,-0.1096875,0.0475
0.56,-0.1084375,0.04625
0.561,-0.1075,0.0453125
0.562,-0.106875,0.044375
0.563,-0.106875,0.043125
0.564,-0.1071875,0.0425
0.565,-0.108125,0.041875
0.566,-0.1084375,0.0409375
0.567,-0.1090625,0.04
0.568,-0.1096875,0.0396875
0.569,-0.1096875,0.0390625
0.57,-0.1096875,0.0384375
0.571,-0.10875,0.0375
0.572,-0.1078125,0.0371875
0.573,-0.10625,0.0359375
0.574,-0.1046875,0.0353125
0.575,-0.1025,0.0340625
0.576,-0.1003125,0.0328125
0.577,-0.09875,0.031875
0.578,-0.0965625,0.030625
0.579,-0.095,0.029375
0.58,-0.0940625,0.028125
0.581,-0.0934375,0.026875
0.582,-0.093125,0.025625
0.583,-0.0934375,0.0246875
0.584,-0.0940625,0.02375
0.585,-0.095,0.023125
0.586,-0.0959375,0.0221875
0.587,-0.0971875,0.0215625
0.588,-0.0978125,0.02125
0.589,-0.0984375,0.020625
0.59,-0.09875,0.0203125
0.591,-0.0984375,0.0196875
0.592,-0.0978125,0.019375
0.593,-0.096875,0.0184375
0.594,-0.095625,0.018125
0.595,-0.0940625,0.0175
0.596,-0.0921875,0.0165625
0.597,-0.0909375,0.01625
0.598,-0.089375,0.0153125
0.599,-0.0884375,0.0146875
0.6,-0.0875,0.0140625
0.601,-0.0871875,0.01375
0.602,-0.0875,0.013125
0.603,-0.088125,0.013125
0.604,-0.08875,0.013125
0.605,-0.09,0.013125
0.606,-0.09125,0.013125
0.607,-0.0925,0.013125
0.608,-0.0934375,0.0134375
0.609,-0.0940625,0.01375
0.61,-0.094375,0.01375
0.611,-0.0940625,0.01375
0.612,-0.09375,0.01375
0.613,-0.0928125,0.01375
0.614,-0.09125,0.013125
0.615,-0.0896875,0.0128125
0.616,-0.088125,0.0125
0.617,-0.08625,0.0115625
0.618,-0.085,0.01125
0.619,-0.08375,0.0103125
0.62,-0.0828125,0.01
0.621,-0.0821875,0.0090625
0.622,-0.0821875,0.00875
0.623,-0.0825,0.0078125
0.624,-0.083125,0.0075
0.625,-0.0840625,0.0071875
0.626,-0.085,0.0065625
0.627,-0.0859375,0.0065625
0.628,-0.0865625,0.0059375
0.629,-0.0871875,0.005625
0.63,-0.0871875,0.0053125
0.631,-0.086875,0.005
0.632,-0.08625,0.0040625
0.633,-0.0853125,0.00375
0.634,-0.0840625,0.0028125
0.635,-0.0821875,0.001875
0.636,-0.0809375,0.00125
0.637,-0.079375,0.0003125
0.638,-0.078125,-0.0009375
0.639,-0.076875,-0.001875
0.64,-0.07625,-0.0025
0.641,-0.0759375,-0.0034375
0.642,-0.07625,-0.004375
0.643,-0.076875,-0.005
0.644,-0.0775,-0.0053125
0.645,-0.0784375,-0.0059375
0.646,-0.0796875,-0.00625
0.647,-0.080625,-0.0065625
0.648,-0.08125,-0.0065625
0.649,-0.0815625,-0.0071875
0.65,-0.08125,-0.0071875
0.651,-0.080625,-0.0078125
0.652,-0.079375,-0.008125
0.653,-0.0775,-0.00875
0.654,-0.0753125,-0.0096875
0.655,-0.0728125,-0.0103125
0.656,-0.0703125,-0.0115625
0.657,-0.0675,-0.0121875
0.658,-0.0646875,-0.0134375
0.659,-0.0621875,-0.0146875
0.66,-0.0596875,-0.015625
0.661,-0.0575,-0.0165625
0.662,-0.0559375,-0.0178125
0.663,-0.054375,-0.0184375
0.664,-0.053125,-0.019375
0.665,-0.0515625,-0.02
0.666,-0.0503125,-0.0209375
0.667,-0.04875,-0.02125
0.668,-0.0465625,-0.0221875
0.669,-0.044375,-0.0225
0.67,-0.0415625,-0.0234375
0.671,-0.038125,-0.024375
0.672,-0.0340625,-0.025
0.673,-0.029375,-0.0259375
0.674,-0.024375,-0.0271875
0.675,-0.01875,-0.0284375
0.676,-0.0134375,-0.0296875
0.677,-0.008125,-0.03125
0.678,-0.0025,-0.0328125
0.679,0.003125,-0.0340625
0.68,0.008125,-0.035625
0.681,0.0128125,-0.036875
0.682,0.016875,-0.038125
0.683,0.020625,-0.039375
0.684,0.024375,-0.040625
0.685,0.0278125,-0.0415625
0.686,0.03125,-0.0428125
0.687,0.0346875,-0.04375
0.688,0.038125,-0.0446875
0.689,0.0421875,-0.045625
0.69,0.04625,-0.04625
0.691,0.0509375,-0.0475
0.692,0.05625,-0.0484375
0.693,0.0615625,-0.0496875
0.694,0.0671875,-0.0509375
0.695,0.0734375,-0.0521875
0.696,0.079375,-0.05375
0.697,0.0853125,-0.0553125
0.698,0.09125,-0.0571875
0.699,0.0965625,-0.05875
0.7,0.1015625,-0.0603125
0.701,0.10625,-0.061875
0.702,0.11,-0.0634375
0.703,0.1134375,-0.0646875
0.704,0.11625,-0.0659375
0.705,0.1190625,-0.0671875
0.706,0.1215625,-0.0684375
0.707,0.1240625,-0.0690625
0.708,0.12625,-0.0703125
0.709,0.12875,-0.0709375
0.71,0.1315625,-0.071875
0.711,0.134375,-0.0728125
0.712,0.1375,-0.0734375
0.713,0.1409375,-0.074375
0.714,0.1446875,-0.075625
0.715,0.1484375,-0.076875
0.716,0.151875,-0.0778125
0.717,0.1553125,-0.0790625
0.718,0.1584375,-0.0803125
0.719,0.1609375,-0.0815625
0.72,0.1634375,-0.0828125
0.721,0.165,-0.0840625
0.722,0.16625,-0.0853125
0.723,0.1665625,-0.08625
0.724,0.1665625,-0.0871875
0.725,0.1665625,-0.088125
0.726,0.1659375,-0.0890625
0.727,0.165625,-0.089375
0.728,0.1646875,-0.0903125
0.729,0.164375,-0.090625
0.73,0.1640625,-0.0915625
0.731,0.1640625,-0.091875
0.732,0.1646875,-0.0925
0.733,0.165,-0.0934375
0.734,0.1659375,-0.09375
0.735,0.166875,-0.0946875
0.736,0.1678125,-0.095625
0.737,0.16875,-0.09625
0.738,0.169375,-0.0971875
0.739,0.1696875,-0.098125
0.74,0.1696875,-0.0990625
0.741,0.1690625,-0.0996875
0.742,0.1684375,-0.100625
0.743,0.166875,-0.1009375
0.744,0.1653125,-0.10125
0.745,0.1634375,-0.101875
0.746,0.1615625,-0.101875
0.747,0.1596875,-0.101875
0.748,0.1575,-0.101875
0.749,0.15625,-0.1015625
0.75,0.155,-0.1015625
0.751,0.15375,-0.1015625
0.752,0.1534375,-0.10125
0.753,0.1534375,-0.10125
0.754,0.1534375,-0.10125
0.755,0.15375,-0.10125
0.756,0.1540625,-0.10125
0.757,0.154375,-0.1015625
0.758,0.1546875,-0.1015625
0.759,0.1546875,-0.1015625
0.76,0.1546875,-0.101875
0.761,0.15375,-0.1021875
0.762,0.1528125,-0.1021875
0.763,0.1515625,-0.1021875
0.764,0.15,-0.1021875
0.765,0.148125,-0.101875
0.766,0.1465625,-0.101875
0.767,0.145,-0.101875
0.768,0.143125,-0.10125
0.769,0.141875,-0.10125
0.77,0.1409375,-0.1009375
0.771,0.140625,-0.1009375
0.772,0.1403125,-0.1009375
0.773,0.140625,-0.1009375
0.774,0.1409375,-0.1015625
0.775,0.141875,-0.101875
0.776,0.1425,-0.1021875
0.777,0.1434375,-0.103125
0.778,0.1440625,-0.1034375
0.779,0.1446875,-0.104375
0.78,0.1446875,-0.105
0.781,0.144375,-0.1059375
0.782,0.1440625,-0.10625
0.783,0.143125,-0.1071875
0.784,0.141875,-0.1078125
0.785,0.140625,-0.108125
0.786,0.1390625,-0.1084375
0.787,0.1378125,-0.1090625
0.788,0.1365625,-0.109375
0.789,0.1353125,-0.109375
0.79,0.1346875,-0.1096875
0.791,0.1340625,-0.11
0.792,0.1340625,-0.1103125
0.793,0.134375,-0.110625
0.794,0.1346875,-0.11125
0.795,0.135625,-0.1115625
0.796,0.13625,-0.1121875
0.797,0.1371875,-0.1125
0.798,0.1375,-0.1134375
0.799,0.138125,-0.11375
0.8,0.138125,-0.114375
0.801,0.1378125,-0.1146875
0.802,0.136875,-0.115
0.803,0.1359375,-0.1153125
0.804,0.1346875,-0.1153125
0.805,0.1334375,-0.1153125
0.806,0.1315625,-0.1153125
0.807,0.13,-0.115
0.808,0.12875,-0.1146875
0.809,0.1275,-0.114375
0.81,0.126875,-0.11375
0.811,0.12625,-0.11375
0.812,0.1259375,-0.113125
0.813,0.12625,-0.113125
0.814,0.1265625,-0.113125
0.815,0.1275,-0.1128125
0.816,0.1278125,-0.1128125
0.817,0.12875,-0.1128125
0.818,0.129375,-0.1128125
0.819,0.1296875,-0.113125
0.82,0.1296875,-0.113125
0.821,0.1296875,-0.1134375
0.822,0.1290625,-0.1134375
0.823,0.128125,-0.1134375
0.824,0.1271875,-0.1134375
0.825,0.1259375,-0.113125
0.826,0.124375,-0.113125
0.827,0.123125,-0.1128125
0.828,0.121875,-0.1128125
0.829,0.1209375,-0.1128125
0.83,0.12,-0.1125
0.831,0.12,-0.1125
0.832,0.12,-0.1125
0.833,0.1203125,-0.1125
0.834,0.120625,-0.1125
0.835,0.1215625,-0.1128125
0.836,0.1221875,-0.113125
0.837,0.123125,-0.1134375
0.838,0.12375,-0.1140625
0.839,0.124375,-0.114375
0.84,0.124375,-0.115
0.841,0.1240625,-0.1153125
0.842,0.1234375,-0.115625
0.843,0.1228125,-0.1159375
0.844,0.1215625,-0.11625
0.845,0.12,-0.1165625
0.846,0.1184375,-0.116875
0.847,0.1171875,-0.116875
0.848,0.1159375,-0.116875
0.849,0.1146875,-0.116875
0.85,0.1140625,-0.116875
0.851,0.1134375,-0.116875
0.852,0.113125,-0.116875
0.853,0.1134375,-0.116875
0.854,0.11375,-0.1171875
0.855,0.1140625,-0.1171875
0.856,0.115,-0.1171875
0.857,0.1153125,-0.1175
0.858,0.1159375,-0.1175
0.859,0.1159375,-0.1178125
0.86,0.1159375,-0.118125
0.861,0.115625,-0.118125
0.862,0.1146875,-0.118125
0.863,0.11375,-0.1184375
0.864,0.1125,-0.1184375
0.865,0.1109375,-0.1184375
0.866,0.1090625,-0.118125
0.867,0.1075,-0.118125
0.868,0.10625,-0.118125
0.869,0.105,-0.1178125
0.87,0.10375,-0.1178125
0.871,0.1034375,-0.1178125
0.872,0.103125,-0.1178125
0.873,0.103125,-0.1178125
0.874,0.103125,-0.118125
0.875,0.10375,-0.118125
0.876,0.1040625,-0.1184375
0.877,0.1046875,-0.1184375
0.878,0.105,-0.11875
0.879,0.105,-0.119375
0.88,0.105,-0.119375
0.881,0.1046875,-0.12
0.882,0.10375,-0.12
0.883,0.1028125,-0.1203125
0.884,0.1015625,-0.1203125
0.885,0.1,-0.1203125
0.886,0.0984375,-0.1203125
0.887,0.096875,-0.1203125
0.888,0.095625,-0.12
0.889,0.0946875,-0.12
0.89,0.0940625,-0.1196875
0.891,0.093125,-0.119375
0.892,0.093125,-0.1190625
0.893,0.0934375,-0.11875
0.894,0.09375,-0.11875
0.895,0.0946875,-0.11875
0.896,0.095,-0.1184375
0.897,0.0959375,-0.1184375
0.898,0.09625,-0.1184375
0.899,0.096875,-0.1184375
0.9,0.096875,-0.1184375
0.901,0.0965625,-0.1184375
0.902,0.0959375,-0.118125
0.903,0.095,-0.118125
0.904,0.0940625,-0.118125
0.905,0.0928125,-0.118125
0.906,0.0915625,-0.1178125
0.907,0.0903125,-0.1175
0.908,0.0890625,-0.1175
0.909,0.088125,-0.1171875
0.91,0.0875,-0.116875
0.911,0.0871875,-0.116875
0.912,0.0871875,-0.116875
0.913,0.0878125,-0.116875
0.914,0.0884375,-0.116875
0.915,0.089375,-0.116875
0.916,0.09,-0.1171875
0.917,0.0909375,-0.1175
0.918,0.091875,-0.1178125
0.919,0.0921875,-0.1178125
0.92,0.0925,-0.1184375
0.921,0.0925,-0.11875
0.922,0.0921875,-0.1190625
0.923,0.0915625,-0.1190625
0.924,0.090625,-0.119375
0.925,0.0896875,-0.1196875
0.926,0.0884375,-0.1196875
0.927,0.0875,-0.1196875
0.928,0.0865625,-0.1196875
0.929,0.085625,-0.119375
0.93,0.0853125,-0.119375
0.931,0.0853125,-0.1190625
0.932,0.0853125,-0.1190625
0.933,0.085625,-0.11875
0.934,0.0865625,-0.1184375
0.935,0.0871875,-0.1184375
0.936,0.088125,-0.1184375
0.937,0.0890625,-0.118125
0.938,0.09,-0.118125
0.939,0.0903125,-0.118125
0.94,0.090625,-0.1178125
0.941,0.090625,-0.1178125
0.942,0.0903125,-0.1178125
0.943,0.089375,-0.1178125
0.944,0.08875,-0.1178125
0.945,0.0878125,-0.1178125
0.946,0.086875,-0.118125
0.947,0.0859375,-0.118125
0.948,0.085,-0.118125
0.949,0.0846875,-0.11875
0.95,0.084375,-0.1190625
0.951,0.084375,-0.119375
0.952,0.085,-0.1203125
0.953,0.085625,-0.120625
0.954,0.0865625,-0.1215625
0.955,0.0878125,-0.1228125
0.956,0.0890625,-0.1234375
0.957,0.0903125,-0.1246875
0.958,0.0915625,-0.1259375
0.959,0.0925,-0.1271875
0.96,0.093125,-0.1284375
0.961,0.09375,-0.1296875
0.962,0.09375,-0.1309375
0.963,0.0934375,-0.1321875
0.964,0.093125,-0.1334375
0.965,0.0921875,-0.1346875
0.966,0.091875,-0.1359375
0.967,0.0909375,-0.1371875
0.968,0.090625,-0.138125
0.969,0.0903125,-0.139375
0.97,0.0903125,-0.140625
0.971,0.090625,-0.141875
0.972,0.09125,-0.143125
0.973,0.0921875,-0.144375
0.974,0.093125,-0.145625
0.975,0.094375,-0.146875
0.976,0.095625,-0.148125
0.977,0.096875,-0.149375
0.978,0.098125,-0.150625
0.979,0.0990625,-0.1515625
0.98,0.099375,-0.1521875
0.981,0.0996875,-0.153125
0.982,0.0996875,-0.15375
0.983,0.099375,-0.154375
0.984,0.09875,-0.1546875
0.985,0.0978125,-0.155
0.986,0.0965625,-0.155
0.987,0.095625,-0.155
0.988,0.095,-0.155
0.989,0.0940625,-0.1546875
0.99,0.09375,-0.1546875
0.991,0.0934375,-0.154375
0.992,0.0934375,-0.154375
0.993,0.09375,-0.154375
0.994,0.094375,-0.1540625
0.995,0.0953125,-0.1540625
0.996,0.0959375,-0.1540625
0.997,0.096875,-0.1540625
0.998,0.0975,-0.1540625
0.999,0.098125,-0.15375
1,0.098125,-0.15375
1.001,0.098125,-0.15375
1.002,0.0978125,-0.153125
1.003,0.096875,-0.1528125
1.004,0.0959375,-0.1525
1.005,0.095,-0.1515625
1.006,0.09375,-0.15125
1.007,0.0925,-0.1503125
1.008,0.09125,-0.149375
1.009,0.09,-0.1490625
1.01,0.089375,-0.148125
1.011,0.0890625,-0.1478125
1.012,0.08875,-0.146875
1.013,0.08875,-0.1465625
1.014,0.089375,-0.14625
1.015,0.09,-0.1459375
1.016,0.0903125,-0.145625
1.017,0.0909375,-0.145625
1.018,0.0915625,-0.145625
1.019,0.0915625,-0.145625
1.02,0.091875,-0.145625
1.021,0.0915625,-0.145625
1.022,0.09125,-0.1453125
1.023,0.0903125,-0.1453125
1.024,0.089375,-0.1453125
1.025,0.0884375,-0.1446875
1.026,0.0871875,-0.1446875
1.027,0.0859375,-0.1440625
1.028,0.0846875,-0.14375
1.029,0.08375,-0.1434375
1.03,0.083125,-0.1428125
1.031,0.0828125,-0.1425
1.032,0.0828125,-0.1421875
1.033,0.083125,-0.141875
1.034,0.0834375,-0.141875
1.035,0.0840625,-0.1415625
1.036,0.085,-0.14125
1.037,0.0853125,-0.14125
1.038,0.08625,-0.14125
1.039,0.0865625,-0.14125
1.04,0.086875,-0.14125
1.041,0.086875,-0.1409375
1.042,0.08625,-0.1409375
1.043,0.085625,-0.1409375
1.044,0.0846875,-0.1403125
1.045,0.08375,-0.1403125
1.046,0.0825,-0.14
1.047,0.08125,-0.139375
1.048,0.08,-0.1390625
1.049,0.0790625,-0.13875
1.05,0.0784375,-0.138125
1.051,0.078125,-0.138125
1.052,0.078125,-0.1375
1.053,0.078125,-0.1375
1.054,0.07875,-0.1371875
1.055,0.079375,-0.1371875
1.056,0.0803125,-0.1371875
1.057,0.0809375,-0.1375
1.058,0.081875,-0.1375
1.059,0.0821875,-0.1375
1.06,0.0825,-0.1378125
1.061,0.0825,-0.138125
1.062,0.0825,-0.138125
1.063,0.081875,-0.138125
1.064,0.08125,-0.1384375
1.065,0.0803125,-0.1384375
1.066,0.079375,-0.1384375
1.067,0.078125,-0.1384375
1.068,0.0775,-0.1384375
1.069,0.0765625,-0.1384375
1.07,0.07625,-0.1384375
1.071,0.0759375,-0.1384375
1.072,0.0759375,-0.13875
1.073,0.07625,-0.1390625
1.074,0.0771875,-0.1390625
1.075,0.078125,-0.1396875
1.076,0.0790625,-0.14
1.077,0.0803125,-0.140625
1.078,0.0809375,-0.1409375
1.079,0.081875,-0.14125
1.08,0.0825,-0.141875
1.081,0.0828125,-0.1421875
1.082,0.0828125,-0.1428125
1.083,0.0825,-0.143125
1.084,0.081875,-0.143125
1.085,0.08125,-0.143125
1.086,0.0803125,-0.143125
1.087,0.0796875,-0.143125
1.088,0.07875,-0.143125
1.089,0.078125,-0.1428125
1.09,0.0775,-0.1428125
1.091,0.0775,-0.1428125
1.092,0.0775,-0.1425
1.093,0.0778125,-0.1425
1.094,0.078125,-0.1425
1.095,0.07875,-0.1425
1.096,0.0796875,-0.1425
1.097,0.080625,-0.1425
1.098,0.08125,-0.1425
1.099,0.0815625,-0.1425
1.1,0.081875,-0.1428125
1.101,0.081875,-0.1428125
1.102,0.0815625,-0.1425
1.103,0.0809375,-0.1425
1.104,0.08,-0.1421875
1.105,0.0790625,-0.141875
1.106,0.0778125,-0.1415625
1.107,0.0765625,-0.14125
1.108,0.0753125,-0.1403125
1.109,0.074375,-0.14
1.11,0.0734375,-0.1396875
1.111,0.073125,-0.1390625
1.112,0.0725,-0.1384375
1.113,0.0725,-0.138125
1.114,0.0728125,-0.1378125
1.115,0.073125,-0.1375
1.116,0.07375,-0.1371875
1.117,0.0740625,-0.1371875
1.118,0.0746875,-0.136875
1.119,0.075,-0.136875
1.12,0.075,-0.136875
1.121,0.0746875,-0.1365625
1.122,0.0740625,-0.1365625
1.123,0.0734375,-0.13625
1.124,0.0721875,-0.1359375
1.125,0.0709375,-0.1359375
1.126,0.0696875,-0.135625
1.127,0.0684375,-0.1353125
1.128,0.0671875,-0.1346875
1.129,0.06625,-0.1346875
1.13,0.0653125,-0.1340625
1.131,0.0646875,-0.13375
1.132,0.064375,-0.13375
1.133,0.064375,-0.1334375
1.134,0.064375,-0.1334375
1.135,0.0646875,-0.1334375
1.136,0.0653125,-0.1334375
1.137,0.065625,-0.1334375
1.138,0.06625,-0.1334375
1.139,0.0665625,-0.13375
1.14,0.0665625,-0.13375
1.141,0.0665625,-0.13375
1.142,0.06625,-0.13375
1.143,0.0653125,-0.13375
1.144,0.0646875,-0.13375
1.145,0.06375,-0.13375
1.146,0.0625,-0.13375
1.147,0.0615625,-0.1334375
1.148,0.0603125,-0.1334375
1.149,0.0596875,-0.1334375
1.15,0.05875,-0.1334375
1.151,0.0584375,-0.1334375
1.152,0.058125,-0.1334375
1.153,0.0584375,-0.1334375
1.154,0.05875,-0.13375
1.155,0.0590625,-0.1340625
1.156,0.06,-0.134375
1.157,0.060625,-0.1346875
1.158,0.0609375,-0.1353125
1.159,0.0615625,-0.135625
1.16,0.0615625,-0.1359375
1.161,0.0615625,-0.13625
1.162,0.06125,-0.1365625
1.163,0.0609375,-0.1365625
1.164,0.06,-0.1365625
1.165,0.059375,-0.1365625
1.166,0.058125,-0.1365625
1.167,0.056875,-0.1365625
1.168,0.0559375,-0.13625
1.169,0.055,-0.1359375
1.17,0.054375,-0.135625
1.171,0.05375,-0.1353125
1.172,0.0534375,-0.1353125
1.173,0.0534375,-0.135
1.174,0.0534375,-0.1346875
1.175,0.0540625,-0.134375
1.176,0.0540625,-0.134375
1.177,0.0546875,-0.1340625
1.178,0.055,-0.13375
1.179,0.055,-0.1334375
1.18,0.055,-0.1334375
1.181,0.055,-0.1328125
1.182,0.054375,-0.1325
1.183,0.05375,-0.131875
1.184,0.0528125,-0.1315625
1.185,0.051875,-0.1309375
1.186,0.050625,-0.13
1.187,0.049375,-0.1290625
1.188,0.0484375,-0.12875
1.189,0.0475,-0.1278125
1.19,0.0465625,-0.1275
1.191,0.04625,-0.1265625
1.192,0.0459375,-0.12625
1.193,0.0459375,-0.125625
1.194,0.04625,-0.1253125
1.195,0.0465625,-0.125
1.196,0.0471875,-0.125
1.197,0.0475,-0.1246875
1.198,0.048125,-0.1246875
1.199,0.0484375,-0.1246875
1.2,0.0484375,-0.1246875
1.201,0.0484375,-0.1246875
1.202,0.048125,-0.1246875
1.203,0.0471875,-0.1246875
1.204,0.046875,-0.124375
1.205,0.045625,-0.124375
1.206,0.044375,-0.1240625
1.207,0.0434375,-0.1240625
1.208,0.0421875,-0.12375
1.209,0.0415625,-0.12375
1.21,0.040625,-0.12375
1.211,0.04,-0.1234375
1.212,0.0396875,-0.1234375
1.213,0.0396875,-0.1234375
1.214,0.0396875,-0.1234375
1.215,0.04,-0.1234375
1.216,0.0403125,-0.12375
1.217,0.040625,-0.12375
1.218,0.0409375,-0.12375
1.219,0.0409375,-0.12375
1.22,0.0409375,-0.1234375
1.221,0.040625,-0.1234375
1.222,0.0403125,-0.123125
1.223,0.0390625,-0.1228125
1.224,0.038125,-0.1225
1.225,0.0371875,-0.1221875
1.226,0.035625,-0.1215625
1.227,0.034375,-0.120625
1.228,0.033125,-0.1203125
1.229,0.0321875,-0.119375
1.23,0.03125,-0.11875
1.231,0.0303125,-0.1178125
1.232,0.03,-0.1175
1.233,0.0296875,-0.116875
1.234,0.0296875,-0.1159375
1.235,0.0296875,-0.115625
1.236,0.03,-0.1153125
1.237,0.0303125,-0.1146875
1.238,0.030625,-0.114375
1.239,0.030625,-0.11375
1.24,0.030625,-0.1134375
1.241,0.0303125,-0.113125
1.242,0.03,-0.1125
1.243,0.029375,-0.1121875
1.244,0.028125,-0.1115625
1.245,0.026875,-0.11125
1.246,0.0259375,-0.110625
1.247,0.0246875,-0.1103125
1.248,0.0234375,-0.1096875
1.249,0.0221875,-0.1090625
1.25,0.0215625,-0.10875
1.251,0.020625,-0.108125
1.252,0.0203125,-0.108125
1.253,0.02,-0.1075
1.254,0.02,-0.1075
1.255,0.0203125,-0.1071875
1.256,0.0203125,-0.1071875
1.257,0.020625,-0.1071875
1.258,0.02125,-0.1071875
1.259,0.02125,-0.1071875
1.26,0.02125,-0.1075
1.261,0.020625,-0.1075
1.262,0.0203125,-0.1075
1.263,0.019375,-0.1075
1.264,0.0184375,-0.1071875
1.265,0.0171875,-0.1071875
1.266,0.0159375,-0.1071875
1.267,0.0146875,-0.106875
1.268,0.0134375,-0.106875
1.269,0.0121875,-0.1065625
1.27,0.0115625,-0.10625
1.271,0.010625,-0.1059375
1.272,0.0103125,-0.1059375
1.273,0.01,-0.1059375
1.274,0.01,-0.105625
1.275,0.01,-0.105625
1.276,0.0103125,-0.105625
1.277,0.010625,-0.105625
1.278,0.0109375,-0.1059375
1.279,0.0109375,-0.1059375
1.28,0.0109375,-0.1059375
1.281,0.0109375,-0.1059375
1.282,0.010625,-0.1059375
1.283,0.0103125,-0.1059375
1.284,0.0090625,-0.1059375
1.285,0.0084375,-0.1059375
1.286,0.0075,-0.1059375
1.287,0.00625,-0.105625
1.288,0.0053125,-0.105625
1.289,0.0046875,-0.1053125
1.29,0.00375,-0.1053125
1.291,0.0034375,-0.1053125
1.292,0.0034375,-0.1053125
1.293,0.0034375,-0.105625
1.294,0.00375,-0.105625
1.295,0.004375,-0.105625
1.296,0.0046875,-0.1059375
1.297,0.005625,-0.10625
1.298,0.00625,-0.1065625
1.299,0.006875,-0.106875
1.3,0.0071875,-0.1071875
1.301,0.0075,-0.1071875
1.302,0.0075,-0.1078125
1.303,0.0075,-0.1078125
1.304,0.0071875,-0.1078125
1.305,0.0065625,-0.108125
1.306,0.0059375,-0.108125
1.307,0.0053125,-0.108125
1.308,0.004375,-0.108125
1.309,0.0040625,-0.108125
1.31,0.00375,-0.108125
1.311,0.003125,-0.108125
1.312,0.003125,-0.108125
1.313,0.0034375,-0.108125
1.314,0.00375,-0.108125
1.315,0.0040625,-0.1084375
1.316,0.005,-0.10875
1.317,0.0053125,-0.10875
1.318,0.00625,-0.1090625
1.319,0.0065625,-0.109375
1.32,0.0071875,-0.1096875
1.321,0.0071875,-0.11
1.322,0.0071875,-0.11
1.323,0.0071875,-0.1103125
1.324,0.0065625,-0.110625
1.325,0.0059375,-0.110625
1.326,0.005625,-0.110625
1.327,0.0046875,-0.1109375
1.328,0.00375,-0.1109375
1.329,0.0034375,-0.1109375
1.33,0.0025,-0.1109375
1.331,0.0021875,-0.11125
1.332,0.001875,-0.11125
1.333,0.001875,-0.11125
1.334,0.0021875,-0.1115625
1.335,0.0021875,-0.111875
1.336,0.0025,-0.111875
1.337,0.0028125,-0.1121875
1.338,0.003125,-0.1128125
1.339,0.0034375,-0.1128125
1.34,0.0034375,-0.113125
1.341,0.0034375,-0.1134375
1.342,0.003125,-0.1134375
1.343,0.0028125,-0.1134375
1.344,0.001875,-0.11375
1.345,0.0009375,-0.1134375
1.346,0.0003125,-0.1134375
1.347,-0.0009375,-0.1134375
1.348,-0.001875,-0.113125
1.349,-0.0028125,-0.113125
1.35,-0.00375,-0.1128125
1.351,-0.0040625,-0.1128125
1.352,-0.005,-0.1128125
1.353,-0.005,-0.1125
1.354,-0.0053125,-0.1125
1.355,-0.0053125,-0.1125
1.356,-0.005,-0.1128125
1.357,-0.005,-0.1128125
1.358,-0.0046875,-0.113125
1.359,-0.0046875,-0.113125
1.36,-0.0046875,-0.113125
1.361,-0.0046875,-0.1134375
1.362,-0.005,-0.1134375
1.363,-0.0053125,-0.11375
1.364,-0.0059375,-0.11375
1.365,-0.006875,-0.11375
1.366,-0.0075,-0.1134375
1.367,-0.00875,-0.1134375
1.368,-0.009375,-0.1134375
1.369,-0.0103125,-0.113125
1.37,-0.01125,-0.113125
1.371,-0.011875,-0.1128125
1.372,-0.0125,-0.1128125
1.373,-0.0128125,-0.1128125
1.374,-0.013125,-0.1125
1.375,-0.013125,-0.1125
1.376,-0.013125,-0.1128125
1.377,-0.013125,-0.1128125
1.378,-0.013125,-0.1128125
1.379,-0.013125,-0.113125
1.38,-0.013125,-0.113125
1.381,-0.0134375,-0.1134375
1.382,-0.01375,-0.11375
1.383,-0.0140625,-0.11375
1.384,-0.014375,-0.11375
1.385,-0.015,-0.11375
1.386,-0.0159375,-0.1140625
1.387,-0.0165625,-0.1140625
1.388,-0.0175,-0.1140625
1.389,-0.0184375,-0.1140625
1.39,-0.01875,-0.1140625
1.391,-0.0196875,-0.1140625
1.392,-0.02,-0.1140625
1.393,-0.0203125,-0.1140625
1.394,-0.0203125,-0.114375
1.395,-0.0203125,-0.114375
1.396,-0.0203125,-0.1146875
1.397,-0.0203125,-0.115
1.398,-0.02,-0.115
1.399,-0.0196875,-0.115625
1.4,-0.019375,-0.115625
1.401,-0.0190625,-0.11625
1.402,-0.0190625,-0.11625
1.403,-0.0190625,-0.116875
1.404,-0.0190625,-0.1171875
1.405,-0.019375,-0.1171875
1.406,-0.0196875,-0.1175
1.407,-0.0196875,-0.1175
1.408,-0.02,-0.1175
1.409,-0.0203125,-0.1175
1.41,-0.0203125,-0.1175
1.411,-0.020625,-0.1175
1.412,-0.020625,-0.1171875
1.413,-0.020625,-0.116875
1.414,-0.0203125,-0.1165625
1.415,-0.02,-0.1165625
1.416,-0.02,-0.11625
1.417,-0.0196875,-0.1159375
1.418,-0.019375,-0.115625
1.419,-0.0190625,-0.115625
1.42,-0.0190625,-0.115
1.421,-0.0190625,-0.115
1.422,-0.0190625,-0.1146875
1.423,-0.0190625,-0.114375
1.424,-0.019375,-0.114375
1.425,-0.02,-0.11375
1.426,-0.0203125,-0.11375
1.427,-0.020625,-0.1134375
1.428,-0.0215625,-0.113125
1.429,-0.021875,-0.1128125
1.43,-0.0228125,-0.1121875
1.431,-0.023125,-0.111875
1.432,-0.02375,-0.1115625
1.433,-0.0240625,-0.11125
1.434,-0.024375,-0.1109375
1.435,-0.0246875,-0.110625
1.436,-0.0246875,-0.11
1.437,-0.025,-0.11
1.438,-0.0253125,-0.1096875
1.439,-0.025625,-0.109375
1.44,-0.025625,-0.109375
1.441,-0.02625,-0.109375
1.442,-0.0265625,-0.109375
1.443,-0.026875,-0.1090625
1.444,-0.0278125,-0.1090625
1.445,-0.0284375,-0.1090625
1.446,-0.02875,-0.1090625
1.447,-0.0296875,-0.1090625
1.448,-0.0303125,-0.10875
1.449,-0.0309375,-0.10875
1.45,-0.0315625,-0.1084375
1.451,-0.031875,-0.1084375
1.452,-0.0325,-0.108125
1.453,-0.0328125,-0.1078125
1.454,-0.0328125,-0.1078125
1.455,-0.0328125,-0.1075
1.456,-0.0328125,-0.1075
1.457,-0.0328125,-0.1071875
1.458,-0.0328125,-0.1071875
1.459,-0.0328125,-0.1071875
1.46,-0.0328125,-0.106875
1.461,-0.0328125,-0.106875
1.462,-0.0328125,-0.106875
1.463,-0.033125,-0.106875
1.464,-0.0334375,-0.106875
1.465,-0.03375,-0.106875
1.466,-0.0340625,-0.106875
1.467,-0.034375,-0.106875
1.468,-0.0346875,-0.1065625
1.469,-0.0353125,-0.1065625
1.47,-0.035625,-0.1065625
1.471,-0.035625,-0.10625
1.472,-0.035625,-0.10625
1.473,-0.0359375,-0.1059375
1.474,-0.0359375,-0.105625
1.475,-0.035625,-0.105625
1.476,-0.035625,-0.105625
1.477,-0.035625,-0.1053125
1.478,-0.0353125,-0.105
1.479,-0.0353125,-0.105
1.48,-0.0353125,-0.104375
1.481,-0.0353125,-0.104375
1.482,-0.0353125,-0.10375
1.483,-0.0353125,-0.1034375
1.484,-0.035625,-0.103125
1.485,-0.0359375,-0.1025
1.486,-0.0359375,-0.1015625
1.487,-0.0365625,-0.1009375
1.488,-0.036875,-0.1
1.489,-0.036875,-0.0990625
1.49,-0.0375,-0.098125
1.491,-0.0375,-0.0971875
1.492,-0.0375,-0.0959375
1.493,-0.0375,-0.0946875
1.494,-0.0375,-0.09375
1.495,-0.0375,-0.0925
1.496,-0.0371875,-0.09125
1.497,-0.036875,-0.09
1.498,-0.036875,-0.08875
1.499,-0.036875,-0.0875
1.5,-0.036875,-0.08625
1.501,-0.036875,-0.0846875
1.502,-0.036875,-0.0834375
1.503,-0.0371875,-0.081875
1.504,-0.0375,-0.080625
1.505,-0.0378125,-0.079375
1.506,-0.0384375,-0.0778125
1.507,-0.03875,-0.07625
1.508,-0.0390625,-0.075
1.509,-0.0396875,-0.07375
1.51,-0.04,-0.0725
1.511,-0.0403125,-0.07125
1.512,-0.0403125,-0.07
1.513,-0.0403125,-0.0690625
1.514,-0.0403125,-0.068125
1.515,-0.0403125,-0.0671875
1.516,-0.0403125,-0.06625
1.517,-0.04,-0.0659375
1.518,-0.0396875,-0.0653125
1.519,-0.039375,-0.065
1.52,-0.039375,-0.0646875
1.521,-0.0390625,-0.064375
1.522,-0.03875,-0.064375
1.523,-0.0384375,-0.064375
1.524,-0.0384375,-0.064375
1.525,-0.038125,-0.0646875
1.526,-0.0378125,-0.065
1.527,-0.0375,-0.0653125
1.528,-0.0371875,-0.0659375
1.529,-0.0365625,-0.066875
1.53,-0.035625,-0.0675
1.531,-0.0346875,-0.06875
1.532,-0.0334375,-0.07
1.533,-0.031875,-0.07125
1.534,-0.0303125,-0.0734375
1.535,-0.0284375,-0.075
1.536,-0.02625,-0.0771875
1.537,-0.0240625,-0.0796875
1.538,-0.021875,-0.0821875
1.539,-0.0196875,-0.0846875
1.54,-0.0175,-0.088125
1.541,-0.015,-0.0909375
1.542,-0.0128125,-0.0940625
1.543,-0.010625,-0.0975
1.544,-0.008125,-0.10125
1.545,-0.0059375,-0.105
1.546,-0.00375,-0.10875
1.547,-0.00125,-0.113125
1.548,0.00125,-0.1171875
1.549,0.00375,-0.1215625
1.55,0.006875,-0.12625
1.551,0.0096875,-0.1309375
1.552,0.0128125,-0.1359375
1.553,0.01625,-0.1409375
1.554,0.0196875,-0.14625
1.555,0.0234375,-0.1515625
1.556,0.0271875,-0.1571875
1.557,0.0309375,-0.1628125
1.558,0.034375,-0.16875
1.559,0.038125,-0.174375
1.56,0.0415625,-0.1803125
1.561,0.0446875,-0.18625
1.562,0.048125,-0.1921875
1.563,0.05125,-0.198125
1.564,0.0540625,-0.204375
1.565,0.056875,-0.21
1.566,0.059375,-0.2159375
1.567,0.0621875,-0.221875
1.568,0.065,-0.2271875
1.569,0.0678125,-0.2328125
1.57,0.0703125,-0.23875
1.571,0.0734375,-0.2440625
1.572,0.07625,-0.249375
1.573,0.0790625,-0.255
1.574,0.0825,-0.2603125
1.575,0.0859375,-0.2653125
1.576,0.08875,-0.2703125
1.577,0.0921875,-0.275625
1.578,0.095,-0.280625
1.579,0.0978125,-0.285625
1.58,0.100625,-0.290625
1.581,0.103125,-0.295
1.582,0.105,-0.3
1.583,0.1071875,-0.3046875
1.584,0.1090625,-0.30875
1.585,0.110625,-0.3134375
1.586,0.111875,-0.3178125
1.587,0.1134375,-0.321875
1.588,0.115,-0.3259375
1.589,0.11625,-0.33
1.59,0.1178125,-0.3340625
1.591,0.119375,-0.3378125
1.592,0.12125,-0.341875
1.593,0.123125,-0.345625
1.594,0.125,-0.349375
1.595,0.1271875,-0.353125
1.596,0.129375,-0.356875
1.597,0.1309375,-0.3603125
1.598,0.133125,-0.3640625
1.599,0.1346875,-0.3675
1.6,0.13625,-0.3709375
1.601,0.1375,-0.3740625
1.602,0.13875,-0.3771875
1.603,0.139375,-0.3803125
1.604,0.1403125,-0.383125
1.605,0.140625,-0.3859375
1.606,0.1409375,-0.3884375
1.607,0.14125,-0.3909375
1.608,0.14125,-0.393125
1.609,0.1415625,-0.3953125
1.61,0.1421875,-0.3975
1.611,0.1425,-0.3990625
1.612,0.143125,-0.40125
1.613,0.1440625,-0.4028125
1.614,0.145,-0.404375
1.615,0.1459375,-0.40625
1.616,0.146875,-0.4075
1.617,0.148125,-0.40875
1.618,0.14875,-0.41
1.619,0.149375,-0.41125
1.62,0.1503125,-0.4121875
1.621,0.150625,-0.4128125
1.622,0.150625,-0.4134375
1.623,0.150625,-0.41375
1.624,0.1503125,-0.41375
1.625,0.1496875,-0.41375
1.626,0.1490625,-0.4134375
1.627,0.1484375,-0.413125
1.628,0.1475,-0.4128125
1.629,0.1471875,-0.411875
1.63,0.14625,-0.4109375
1.631,0.1459375,-0.41
1.632,0.145625,-0.409375
1.633,0.145625,-0.408125
1.634,0.145625,-0.406875
1.635,0.145625,-0.4059375
1.636,0.1459375,-0.404375
1.637,0.1459375,-0.403125
1.638,0.1465625,-0.4015625
1.639,0.1465625,-0.3996875
1.64,0.1465625,-0.398125
1.641,0.14625,-0.39625
1.642,0.1459375,-0.3940625
1.643,0.1453125,-0.391875
1.644,0.1446875,-0.389375
1.645,0.14375,-0.386875
1.646,0.1425,-0.3840625
1.647,0.14125,-0.38125
1.648,0.1403125,-0.3784375
1.649,0.1390625,-0.375625
1.65,0.138125,-0.3728125
1.651,0.1371875,-0.3696875
1.652,0.13625,-0.3671875
1.653,0.1359375,-0.3640625
1.654,0.1353125,-0.3615625
1.655,0.135,-0.3590625
1.656,0.1346875,-0.35625
1.657,0.1346875,-0.35375
1.658,0.1346875,-0.3515625
1.659,0.1340625,-0.3490625
1.66,0.13375,-0.3465625
1.661,0.1334375,-0.344375
1.662,0.1328125,-0.3421875
1.663,0.1321875,-0.3396875
1.664,0.13125,-0.3371875
1.665,0.1303125,-0.335
1.666,0.1290625,-0.3328125
1.667,0.128125,-0.330625
1.668,0.1271875,-0.3284375
1.669,0.1259375,-0.3265625
1.67,0.1253125,-0.324375
1.671,0.124375,-0.3221875
1.672,0.1240625,-0.320625
1.673,0.1234375,-0.31875
1.674,0.1234375,-0.3171875
1.675,0.1234375,-0.315625
1.676,0.1234375,-0.3140625
1.677,0.1234375,-0.3125
1.678,0.1234375,-0.31125
1.679,0.1234375,-0.3096875
1.68,0.1234375,-0.308125
1.681,0.123125,-0.3065625
1.682,0.1228125,-0.305
1.683,0.1221875,-0.303125
1.684,0.1215625,-0.30125
1.685,0.120625,-0.299375
1.686,0.12,-0.2971875
1.687,0.1190625,-0.295
1.688,0.1184375,-0.2928125
1.689,0.1175,-0.2903125
1.69,0.1171875,-0.288125
1.691,0.1165625,-0.285625
1.692,0.1165625,-0.2828125
1.693,0.11625,-0.2803125
1.694,0.1165625,-0.2778125
1.695,0.1165625,-0.2753125
1.696,0.1165625,-0.2728125
1.697,0.116875,-0.27
1.698,0.116875,-0.2675
1.699,0.116875,-0.265
1.7,0.116875,-0.2621875
1.701,0.1165625,-0.2596875
1.702,0.11625,-0.2571875
1.703,0.1153125,-0.254375
1.704,0.114375,-0.251875
1.705,0.1134375,-0.2490625
1.706,0.1125,-0.24625
1.707,0.11125,-0.2434375
1.708,0.11,-0.240625
1.709,0.1090625,-0.2378125
1.71,0.1084375,-0.235
1.711,0.1075,-0.2321875
1.712,0.1071875,-0.2296875
1.713,0.106875,-0.2271875
1.714,0.1065625,-0.2246875
1.715,0.1065625,-0.2221875
1.716,0.1065625,-0.22
1.717,0.1065625,-0.2178125
1.718,0.1065625,-0.215625
1.719,0.10625,-0.2140625
1.72,0.1059375,-0.211875
1.721,0.1053125,-0.21
1.722,0.105,-0.2084375
1.723,0.1040625,-0.206875
1.724,0.103125,-0.205
1.725,0.1021875,-0.2034375
1.726,0.1009375,-0.2015625
1.727,0.0996875,-0.2
1.728,0.09875,-0.1984375
1.729,0.0975,-0.1965625
1.73,0.0965625,-0.195
1.731,0.095625,-0.193125
1.732,0.095,-0.1915625
1.733,0.0946875,-0.1896875
1.734,0.094375,-0.188125
1.735,0.0940625,-0.18625
1.736,0.0940625,-0.1846875
1.737,0.0940625,-0.183125
1.738,0.0940625,-0.1815625
1.739,0.09375,-0.18
1.74,0.09375,-0.1784375
1.741,0.093125,-0.176875
1.742,0.0928125,-0.1753125
1.743,0.091875,-0.1734375
1.744,0.0909375,-0.171875
1.745,0.09,-0.1703125
1.746,0.0890625,-0.16875
1.747,0.0878125,-0.166875
1.748,0.0865625,-0.1653125
1.749,0.0859375,-0.16375
1.75,0.085,-0.1621875
1.751,0.0840625,-0.160625
1.752,0.0834375,-0.1590625
1.753,0.083125,-0.1575
1.754,0.0828125,-0.15625
1.755,0.0825,-0.1546875
1.756,0.0825,-0.1534375
1.757,0.0825,-0.1521875
1.758,0.0821875,-0.15125
1.759,0.0821875,-0.15
1.76,0.0815625,-0.14875
1.761,0.08125,-0.1478125
1.762,0.080625,-0.1465625
1.763,0.08,-0.145625
1.764,0.0790625,-0.144375
1.765,0.078125,-0.143125
1.766,0.076875,-0.1421875
1.767,0.0759375,-0.1409375
1.768,0.075,-0.1396875
1.769,0.0740625,-0.13875
1.77,0.073125,-0.1375
1.771,0.0721875,-0.1365625
1.772,0.071875,-0.1353125
1.773,0.0715625,-0.1346875
1.774,0.07125,-0.13375
1.775,0.0709375,-0.1328125
1.776,0.0709375,-0.1321875
1.777,0.07125,-0.13125
1.778,0.0709375,-0.1303125
1.779,0.0709375,-0.13
1.78,0.0709375,-0.1290625
1.781,0.070625,-0.128125
1.782,0.0703125,-0.1275
1.783,0.0696875,-0.1265625
1.784,0.0690625,-0.125625
1.785,0.068125,-0.124375
1.786,0.0675,-0.12375
1.787,0.0665625,-0.1225
1.788,0.065625,-0.1215625
1.789,0.0646875,-0.120625
1.79,0.0640625,-0.119375
1.791,0.0634375,-0.1184375
1.792,0.063125,-0.1178125
1.793,0.0625,-0.116875
1.794,0.0625,-0.1159375
1.795,0.0625,-0.115625
1.796,0.0621875,-0.1146875
1.797,0.0621875,-0.114375
1.798,0.0621875,-0.11375
1.799,0.061875,-0.1134375
1.8,0.0615625,-0.1128125
1.801,0.06125,-0.1125
1.802,0.0609375,-0.1121875
1.803,0.06,-0.1115625
1.804,0.0590625,-0.11125
1.805,0.0584375,-0.1103125
1.806,0.0571875,-0.11
1.807,0.05625,-0.1090625
1.808,0.0553125,-0.10875
1.809,0.0546875,-0.1078125
1.81,0.05375,-0.1071875
1.811,0.053125,-0.10625
1.812,0.0528125,-0.1059375
1.813,0.0525,-0.1053125
1.814,0.0525,-0.104375
1.815,0.0525,-0.1040625
1.816,0.0525,-0.1034375
1.817,0.0525,-0.103125
1.818,0.0525,-0.1028125
1.819,0.0525,-0.1021875
1.82,0.0525,-0.101875
1.821,0.0521875,-0.1015625
1.822,0.051875,-0.1009375
1.823,0.0515625,-0.100625
1.824,0.050625,-0.1003125
1.825,0.0503125,-0.099375
1.826,0.049375,-0.09875
1.827,0.04875,-0.0978125
1.828,0.0478125,-0.096875
1.829,0.0471875,-0.0959375
1.83,0.046875,-0.095
1.831,0.0465625,-0.0940625
1.832,0.04625,-0.0928125
1.833,0.04625,-0.091875
1.834,0.04625,-0.0909375
1.835,0.0465625,-0.09
1.836,0.046875,-0.089375
1.837,0.046875,-0.0884375
1.838,0.0471875,-0.088125
1.839,0.0471875,-0.0871875
1.84,0.0471875,-0.086875
1.841,0.0471875,-0.0865625
1.842,0.046875,-0.0859375
1.843,0.0465625,-0.085625
1.844,0.0459375,-0.085
1.845,0.045,-0.0846875
1.846,0.0446875,-0.0840625
1.847,0.04375,-0.0834375
1.848,0.043125,-0.0828125
1.849,0.0425,-0.0821875
1.85,0.0421875,-0.08125
1.851,0.041875,-0.080625
1.852,0.041875,-0.0796875
1.853,0.041875,-0.0790625
1.854,0.0421875,-0.078125
1.855,0.0425,-0.0771875
1.856,0.0428125,-0.0765625
1.857,0.0434375,-0.07625
1.858,0.04375,-0.075625
1.859,0.044375,-0.0753125
1.86,0.0446875,-0.075
1.861,0.0446875,-0.0746875
1.862,0.0446875,-0.0746875
1.863,0.0446875,-0.074375
1.864,0.0440625,-0.074375
1.865,0.0440625,-0.074375
1.866,0.0434375,-0.0740625
1.867,0.043125,-0.0740625
1.868,0.0428125,-0.07375
1.869,0.0425,-0.0734375
1.87,0.0425,-0.0734375
1.871,0.0425,-0.073125
1.872,0.0425,-0.0728125
1.873,0.043125,-0.0728125
1.874,0.0434375,-0.0721875
1.875,0.0440625,-0.071875
1.876,0.0446875,-0.071875
1.877,0.045625,-0.07125
1.878,0.0459375,-0.07125
1.879,0.0465625,-0.0709375
1.88,0.046875,-0.070625
1.881,0.046875,-0.0703125
1.882,0.046875,-0.07
1.883,0.0465625,-0.0696875
1.884,0.04625,-0.069375
1.885,0.0459375,-0.06875
1.886,0.0453125,-0.0684375
1.887,0.044375,-0.0678125
1.888,0.04375,-0.0675
1.889,0.043125,-0.0671875
1.89,0.0428125,-0.06625
1.891,0.0421875,-0.065625
1.892,0.0421875,-0.0653125
1.893,0.0421875,-0.064375
1.894,0.0421875,-0.0640625
1.895,0.0421875,-0.063125
1.896,0.0425,-0.0625
1.897,0.0428125,-0.0615625
1.898,0.043125,-0.06125
1.899,0.043125,-0.0603125
1.9,0.043125,-0.06
1.901,0.043125,-0.0590625
1.902,0.0428125,-0.058125
1.903,0.0425,-0.0578125
1.904,0.041875,-0.056875
1.905,0.0409375,-0.0565625
1.906,0.0403125,-0.0559375
1.907,0.039375,-0.0553125
1.908,0.0390625,-0.055
1.909,0.038125,-0.0546875
1.91,0.0378125,-0.0540625
1.911,0.0375,-0.0540625
1.912,0.0375,-0.05375
1.913,0.0375,-0.05375
1.914,0.0378125,-0.05375
1.915,0.038125,-0.05375
1.916,0.0384375,-0.05375
1.917,0.0390625,-0.05375
1.918,0.0396875,-0.0540625
1.919,0.04,-0.054375
1.92,0.0403125,-0.0546875
1.921,0.040625,-0.055
1.922,0.040625,-0.055
1.923,0.0403125,-0.0553125
1.924,0.04,-0.055625
1.925,0.039375,-0.0559375
1.926,0.0390625,-0.0559375
1.927,0.03875,-0.0559375
1.928,0.038125,-0.05625
1.929,0.0375,-0.05625
1.93,0.0371875,-0.05625
1.931,0.0371875,-0.0565625
1.932,0.0371875,-0.0565625
1.933,0.0375,-0.0565625
1.934,0.0378125,-0.056875
1.935,0.038125,-0.056875
1.936,0.03875,-0.056875
1.937,0.0390625,-0.0571875
1.938,0.0396875,-0.0571875
1.939,0.04,-0.0575
1.94,0.0403125,-0.0575
1.941,0.0403125,-0.0575
1.942,0.0403125,-0.0575
1.943,0.04,-0.0571875
1.944,0.0396875,-0.0571875
1.945,0.0390625,-0.056875
1.946,0.0384375,-0.0565625
1.947,0.038125,-0.0565625
1.948,0.0375,-0.0559375
1.949,0.0371875,-0.0559375
1.95,0.036875,-0.0553125
1.951,0.036875,-0.0553125
1.952,0.036875,-0.0546875
1.953,0.0375,-0.054375
1.954,0.0378125,-0.0540625
1.955,0.0384375,-0.05375
1.956,0.039375,-0.0534375
1.957,0.0396875,-0.053125
1.958,0.040625,-0.0528125
1.959,0.0409375,-0.0521875
1.96,0.04125,-0.051875
1.961,0.041875,-0.05125
1.962,0.041875,-0.0509375
1.963,0.0415625,-0.0503125
1.964,0.04125,-0.05
1.965,0.0409375,-0.0490625
1.966,0.04,-0.0484375
1.967,0.0396875,-0.0478125
1.968,0.03875,-0.046875
1.969,0.0384375,-0.0465625
1.97,0.038125,-0.045625
1.971,0.0378125,-0.0453125
1.972,0.0378125,-0.0446875
1.973,0.0378125,-0.044375
1.974,0.0384375,-0.0440625
1.975,0.03875,-0.0434375
1.976,0.039375,-0.0434375
1.977,0.0403125,-0.043125
1.978,0.0409375,-0.043125
1.979,0.041875,-0.0428125
1.98,0.0428125,-0.0428125
1.981,0.0434375,-0.043125
1.982,0.04375,-0.043125
1.983,0.044375,-0.043125
1.984,0.0446875,-0.0434375
1.985,0.045,-0.04375
1.986,0.0453125,-0.04375
1.987,0.045625,-0.0440625
1.988,0.04625,-0.044375
1.989,0.0465625,-0.045
1.99,0.0475,-0.0453125
1.991,0.0484375,-0.045625
1.992,0.0496875,-0.0465625
1.993,0.05125,-0.046875
1.994,0.0528125,-0.0475
1.995,0.0546875,-0.048125
1.996,0.056875,-0.04875
1.997,0.0590625,-0.049375
1.998,0.06125,-0.05
1.999,0.0634375,-0.050625
2,0.065625,-0.0509375
2.001,0.0675,-0.051875
2.002,0.0696875,-0.0521875
2.003,0.07125,-0.0528125
2.004,0.0728125,-0.053125
2.005,0.074375,-0.05375
2.006,0.075625,-0.054375
2.007,0.076875,-0.0546875
2.008,0.0784375,-0.0553125
2.009,0.0796875,-0.0559375
2.01,0.0809375,-0.0565625
2.011,0.0825,-0.0571875
2.012,0.084375,-0.0578125
2.013,0.08625,-0.05875
2.014,0.0878125,-0.059375
2.015,0.09,-0.0603125
2.016,0.0915625,-0.06125
2.017,0.09375,-0.0621875
2.018,0.095625,-0.063125
2.019,0.0975,-0.0640625
2.02,0.0990625,-0.065
2.021,0.100625,-0.065625
2.022,0.101875,-0.0665625
2.023,0.1028125,-0.0675
2.024,0.10375,-0.068125
2.025,0.1046875,-0.06875
2.026,0.1053125,-0.069375
2.027,0.1059375,-0.07
2.028,0.10625,-0.0703125
2.029,0.1071875,-0.07125
2.03,0.1075,-0.0715625
2.031,0.1084375,-0.071875
2.032,0.109375,-0.0725
2.033,0.11,-0.073125
2.034,0.11125,-0.07375
2.035,0.111875,-0.0740625
2.036,0.113125,-0.0746875
2.037,0.1140625,-0.0753125
2.038,0.115,-0.075625
2.039,0.1159375,-0.0759375
2.04,0.11625,-0.0765625
2.041,0.116875,-0.076875
2.042,0.1171875,-0.076875
2.043,0.1171875,-0.076875
2.044,0.1171875,-0.076875
2.045,0.116875,-0.076875
2.046,0.11625,-0.076875
2.047,0.1159375,-0.07625
2.048,0.115625,-0.0759375
2.049,0.1146875,-0.0753125
2.05,0.114375,-0.075
2.051,0.1140625,-0.0746875
2.052,0.11375,-0.07375
2.053,0.1134375,-0.0734375
2.054,0.1134375,-0.073125
2.055,0.1134375,-0.0725
2.056,0.1134375,-0.0721875
2.057,0.1134375,-0.071875
2.058,0.1134375,-0.0715625
2.059,0.1134375,-0.07125
2.06,0.113125,-0.07125
2.061,0.1125,-0.0709375
2.062,0.111875,-0.0703125
2.063,0.1115625,-0.0703125
2.064,0.110625,-0.0696875
2.065,0.109375,-0.0696875
2.066,0.1084375,-0.0690625
2.067,0.1075,-0.06875
2.068,0.1065625,-0.068125
2.069,0.1053125,-0.0678125
2.07,0.1046875,-0.0671875
2.071,0.10375,-0.066875
2.072,0.103125,-0.0665625
2.073,0.1028125,-0.0659375
2.074,0.1021875,-0.065625
2.075,0.101875,-0.065625
2.076,0.101875,-0.0653125
2.077,0.101875,-0.0653125
2.078,0.1015625,-0.0653125
2.079,0.10125,-0.065
2.08,0.10125,-0.065
2.081,0.100625,-0.065
2.082,0.1003125,-0.065
2.083,0.0996875,-0.065
2.084,0.09875,-0.0646875
2.085,0.0978125,-0.0646875
2.086,0.096875,-0.0646875
2.087,0.095625,-0.0640625
2.088,0.0946875,-0.0640625
2.089,0.0934375,-0.0634375
2.09,0.0928125,-0.063125
2.091,0.091875,-0.063125
2.092,0.09125,-0.0625
2.093,0.0909375,-0.0625
2.094,0.0903125,-0.0621875
2.095,0.0903125,-0.061875
2.096,0.09,-0.061875
2.097,0.09,-0.0615625
2.098,0.09,-0.0615625
2.099,0.09,-0.06125
2.1,0.09,-0.06125
2.101,0.0896875,-0.0609375
2.102,0.089375,-0.060625
2.103,0.0890625,-0.060625
2.104,0.0884375,-0.0603125
2.105,0.088125,-0.06
2.106,0.0871875,-0.0596875
2.107,0.086875,-0.0590625
2.108,0.0865625,-0.05875
2.109,0.0859375,-0.058125
2.11,0.085625,-0.0578125
2.111,0.085625,-0.0571875
2.112,0.085625,-0.056875
2.113,0.0859375,-0.0565625
2.114,0.08625,-0.05625
2.115,0.0865625,-0.0559375
2.116,0.0875,-0.055625
2.117,0.0878125,-0.055625
2.118,0.08875,-0.055625
2.119,0.089375,-0.055625
2.12,0.0896875,-0.055625
2.121,0.0903125,-0.055625
2.122,0.090625,-0.055625
2.123,0.0909375,-0.055625
2.124,0.0909375,-0.055625
2.125,0.090625,-0.055625
2.126,0.090625,-0.055625
2.127,0.090625,-0.055625
2.128,0.09,-0.055625
2.129,0.09,-0.055625
2.13,0.09,-0.0553125
2.131,0.0896875,-0.0553125
2.132,0.09,-0.0553125
2.133,0.09,-0.055
2.134,0.0903125,-0.055
2.135,0.090625,-0.055
2.136,0.090625,-0.055
2.137,0.09125,-0.0553125
2.138,0.09125,-0.0553125
2.139,0.09125,-0.0553125
2.14,0.09125,-0.055625
2.141,0.0909375,-0.0559375
2.142,0.090625,-0.0559375
2.143,0.09,-0.0559375
2.144,0.0890625,-0.05625
2.145,0.088125,-0.0565625
2.146,0.0871875,-0.0565625
2.147,0.0859375,-0.056875
2.148,0.085,-0.056875
2.149,0.0840625,-0.056875
2.15,0.0828125,-0.0571875
2.151,0.0821875,-0.0571875
2.152,0.08125,-0.0575
2.153,0.0809375,-0.0575
2.154,0.0803125,-0.058125
2.155,0.08,-0.058125
2.156,0.0796875,-0.0584375
2.157,0.0796875,-0.0590625
2.158,0.079375,-0.059375
2.159,0.0790625,-0.0596875
2.16,0.07875,-0.06
2.161,0.078125,-0.060625
2.162,0.0778125,-0.0609375
2.163,0.076875,-0.0615625
2.164,0.0759375,-0.061875
2.165,0.075,-0.0625
2.166,0.07375,-0.0628125
2.167,0.0728125,-0.063125
2.168,0.071875,-0.0634375
2.169,0.0709375,-0.06375
2.17,0.07,-0.0640625
2.171,0.0690625,-0.0640625
2.172,0.06875,-0.064375
2.173,0.0684375,-0.0646875
2.174,0.068125,-0.0646875
2.175,0.0678125,-0.065
2.176,0.0678125,-0.065
2.177,0.0678125,-0.065
2.178,0.0678125,-0.0653125
2.179,0.0678125,-0.0653125
2.18,0.0678125,-0.0653125
2.181,0.0675,-0.0653125
2.182,0.0671875,-0.0653125
2.183,0.066875,-0.0653125
2.184,0.0659375,-0.0653125
2.185,0.065625,-0.065
2.186,0.0646875,-0.0646875
2.187,0.0640625,-0.064375
2.188,0.063125,-0.06375
2.189,0.0625,-0.0634375
2.19,0.0621875,-0.0625
2.191,0.061875,-0.0621875
2.192,0.0615625,-0.06125
2.193,0.0615625,-0.0609375
2.194,0.0615625,-0.06
2.195,0.061875,-0.0596875
2.196,0.0621875,-0.05875
2.197,0.0621875,-0.058125
2.198,0.0625,-0.0571875
2.199,0.0628125,-0.056875
2.2,0.0628125,-0.0559375
2.201,0.0628125,-0.055625
2.202,0.0628125,-0.055
2.203,0.0625,-0.0546875
2.204,0.0621875,-0.05375
2.205,0.0615625,-0.0534375
2.206,0.0609375,-0.053125
2.207,0.060625,-0.0525
2.208,0.06,-0.0521875
2.209,0.0596875,-0.051875
2.21,0.059375,-0.0515625
2.211,0.0590625,-0.05125
2.212,0.0590625,-0.05125
2.213,0.0590625,-0.05125
2.214,0.0590625,-0.05125
2.215,0.0596875,-0.05125
2.216,0.06,-0.05125
2.217,0.0603125,-0.0515625
2.218,0.0603125,-0.051875
2.219,0.060625,-0.051875
2.22,0.060625,-0.0525
2.221,0.060625,-0.0525
2.222,0.0603125,-0.0528125
2.223,0.06,-0.053125
2.224,0.0596875,-0.0534375
2.225,0.05875,-0.0534375
2.226,0.0584375,-0.05375
2.227,0.0575,-0.0540625
2.228,0.056875,-0.0540625
2.229,0.0565625,-0.0546875
2.23,0.055625,-0.0546875
2.231,0.0553125,-0.055
2.232,0.055,-0.0553125
2.233,0.055,-0.055625
2.234,0.055,-0.0559375
2.235,0.055,-0.05625
2.236,0.055,-0.0565625
2.237,0.0553125,-0.056875
2.238,0.0553125,-0.0575
2.239,0.0553125,-0.0575
2.24,0.0553125,-0.058125
2.241,0.0553125,-0.058125
2.242,0.055,-0.0584375
2.243,0.054375,-0.0584375
2.244,0.0540625,-0.0584375
2.245,0.053125,-0.0584375
2.246,0.0525,-0.0584375
2.247,0.051875,-0.058125
2.248,0.0509375,-0.058125
2.249,0.050625,-0.0578125
2.25,0.0496875,-0.0575
2.251,0.049375,-0.0575
2.252,0.0490625,-0.0575
2.253,0.0490625,-0.0575
2.254,0.0490625,-0.0575
2.255,0.0490625,-0.0575
2.256,0.049375,-0.0575
2.257,0.049375,-0.0578125
2.258,0.05,-0.0578125
2.259,0.05,-0.058125
2.26,0.05,-0.058125
2.261,0.05,-0.0584375
2.262,0.05,-0.0584375
2.263,0.05,-0.0584375
2.264,0.049375,-0.05875
2.265,0.0490625,-0.05875
2.266,0.04875,-0.05875
2.267,0.0478125,-0.0584375
2.268,0.0475,-0.0584375
2.269,0.0471875,-0.0584375
2.27,0.0465625,-0.0584375
2.271,0.0465625,-0.058125
2.272,0.0465625,-0.058125
2.273,0.0465625,-0.0584375
2.274,0.0465625,-0.0584375
2.275,0.0471875,-0.0584375
2.276,0.0475,-0.05875
2.277,0.0478125,-0.05875
2.278,0.0484375,-0.05875
2.279,0.0484375,-0.059375
2.28,0.0490625,-0.059375
2.281,0.0490625,-0.0596875
2.282,0.0490625,-0.06
2.283,0.0490625,-0.06
2.284,0.04875,-0.0603125
2.285,0.048125,-0.060625
2.286,0.0478125,-0.060625
2.287,0.0471875,-0.0609375
2.288,0.046875,-0.0609375
2.289,0.04625,-0.0609375
2.29,0.0459375,-0.0609375
2.291,0.045625,-0.0609375
2.292,0.045625,-0.0609375
2.293,0.045625,-0.060625
2.294,0.045625,-0.060625
2.295,0.04625,-0.060625
2.296,0.04625,-0.060625
2.297,0.046875,-0.060625
2.298,0.046875,-0.0603125
2.299,0.0475,-0.0603125
2.3,0.0475,-0.0603125
2.301,0.0475,-0.0603125
2.302,0.0475,-0.060625
2.303,0.0475,-0.060625
2.304,0.0471875,-0.060625
2.305,0.046875,-0.060625
2.306,0.0465625,-0.060625
2.307,0.04625,-0.060625
2.308,0.0459375,-0.060625
2.309,0.045625,-0.060625
2.31,0.045625,-0.060625
2.311,0.0459375,-0.0603125
2.312,0.04625,-0.0603125
2.313,0.0465625,-0.0603125
2.314,0.0475,-0.0603125
2.315,0.048125,-0.0603125
2.316,0.0490625,-0.0603125
2.317,0.0496875,-0.0603125
2.318,0.050625,-0.0603125
2.319,0.0515625,-0.0603125
2.32,0.051875,-0.0603125
2.321,0.0528125,-0.0603125
2.322,0.053125,-0.0603125
2.323,0.0534375,-0.06
2.324,0.0534375,-0.06
2.325,0.0534375,-0.06
2.326,0.053125,-0.0596875
2.327,0.0528125,-0.0596875
2.328,0.0528125,-0.059375
2.329,0.0525,-0.0590625
2.33,0.0525,-0.0590625
2.331,0.0521875,-0.05875
2.332,0.0521875,-0.05875
2.333,0.0525,-0.0584375
2.334,0.0525,-0.058125
2.335,0.0528125,-0.058125
2.336,0.053125,-0.0578125
2.337,0.0534375,-0.0571875
2.338,0.0534375,-0.0571875
2.339,0.0534375,-0.0565625
2.34,0.0534375,-0.05625
2.341,0.0528125,-0.055625
2.342,0.0525,-0.0553125
2.343,0.051875,-0.055
2.344,0.0509375,-0.0540625
2.345,0.0503125,-0.0534375
2.346,0.0490625,-0.053125
2.347,0.0478125,-0.0521875
2.348,0.046875,-0.0515625
2.349,0.045625,-0.050625
2.35,0.0446875,-0.05
2.351,0.04375,-0.049375
2.352,0.0428125,-0.0484375
2.353,0.0425,-0.048125
2.354,0.041875,-0.0471875
2.355,0.04125,-0.046875
2.356,0.04125,-0.0459375
2.357,0.040625,-0.045625
2.358,0.040625,-0.0453125
2.359,0.0403125,-0.0446875
2.36,0.0403125,-0.044375
2.361,0.0396875,-0.04375
2.362,0.039375,-0.0434375
2.363,0.0390625,-0.043125
2.364,0.0384375,-0.0425
2.365,0.0375,-0.0425
2.366,0.0365625,-0.041875
2.367,0.03625,-0.041875
2.368,0.035625,-0.04125
2.369,0.0346875,-0.04125
2.37,0.034375,-0.04125
2.371,0.0340625,-0.04125
2.372,0.03375,-0.04125
2.373,0.03375,-0.04125
2.374,0.03375,-0.0415625
2.375,0.0340625,-0.0421875
2.376,0.034375,-0.0425
2.377,0.0346875,-0.0434375
2.378,0.035,-0.0440625
2.379,0.0353125,-0.045
2.38,0.035625,-0.0459375
2.381,0.0359375,-0.046875
2.382,0.0359375,-0.0478125
2.383,0.0359375,-0.0490625
2.384,0.035625,-0.0496875
2.385,0.0353125,-0.0509375
2.386,0.035,-0.051875
2.387,0.0346875,-0.0528125
2.388,0.034375,-0.0540625
2.389,0.0340625,-0.0546875
2.39,0.03375,-0.055625
2.391,0.03375,-0.0565625
2.392,0.03375,-0.0571875
2.393,0.03375,-0.0578125
2.394,0.0340625,-0.05875
2.395,0.034375,-0.059375
2.396,0.0346875,-0.0596875
2.397,0.035,-0.0603125
2.398,0.0353125,-0.0609375
2.399,0.035625,-0.06125
2.4,0.035625,-0.0615625
2.401,0.035625,-0.061875
2.402,0.035625,-0.0625
2.403,0.0353125,-0.0628125
2.404,0.0346875,-0.0628125
2.405,0.034375,-0.0634375
2.406,0.0340625,-0.0634375
2.407,0.0334375,-0.0634375
2.408,0.0325,-0.06375
2.409,0.0321875,-0.06375
2.41,0.031875,-0.06375
2.411,0.03125,-0.0640625
2.412,0.03125,-0.0640625
2.413,0.0309375,-0.0640625
2.414,0.0309375,-0.0640625
2.415,0.03125,-0.064375
2.416,0.03125,-0.064375
2.417,0.031875,-0.064375
2.418,0.0321875,-0.0646875
2.419,0.0321875,-0.0646875
2.42,0.0325,-0.0646875
2.421,0.0325,-0.065
2.422,0.0325,-0.065
2.423,0.0325,-0.065
2.424,0.0325,-0.0653125
2.425,0.0321875,-0.0653125
2.426,0.031875,-0.0653125
2.427,0.0315625,-0.0653125
2.428,0.03125,-0.065625
2.429,0.0309375,-0.065625
2.43,0.0309375,-0.065625
2.431,0.0309375,-0.0659375
2.432,0.0309375,-0.0659375
2.433,0.03125,-0.06625
2.434,0.0315625,-0.0665625
2.435,0.031875,-0.0665625
2.436,0.0328125,-0.066875
2.437,0.033125,-0.0671875
2.438,0.0340625,-0.0675
2.439,0.034375,-0.0675
2.44,0.035,-0.0675
2.441,0.0353125,-0.0678125
2.442,0.0359375,-0.0678125
2.443,0.03625,-0.0675
2.444,0.03625,-0.0675
2.445,0.03625,-0.0675
2.446,0.0365625,-0.0671875
2.447,0.03625,-0.066875
2.448,0.03625,-0.066875
2.449,0.0365625,-0.06625
2.45,0.0365625,-0.0659375
2.451,0.0365625,-0.0659375
2.452,0.036875,-0.0653125
2.453,0.0375,-0.0653125
2.454,0.0378125,-0.065
2.455,0.03875,-0.064375
2.456,0.039375,-0.064375
2.457,0.0396875,-0.0640625
2.458,0.040625,-0.06375
2.459,0.0415625,-0.06375
2.46,0.0421875,-0.0634375
2.461,0.0425,-0.0628125
2.462,0.043125,-0.0625
2.463,0.0434375,-0.0621875
2.464,0.04375,-0.0615625
2.465,0.04375,-0.06125
2.466,0.0440625,-0.0603125
2.467,0.0440625,-0.0596875
2.468,0.04375,-0.05875
2.469,0.0440625,-0.058125
2.47,0.0440625,-0.056875
2.471,0.0440625,-0.05625
2.472,0.0440625,-0.0553125
2.473,0.044375,-0.0540625
2.474,0.0446875,-0.053125
2.475,0.045,-0.051875
2.476,0.045625,-0.050625
2.477,0.0459375,-0.049375
2.478,0.04625,-0.048125
2.479,0.046875,-0.046875
2.48,0.046875,-0.045625
2.481,0.0471875,-0.0440625
2.482,0.0475,-0.0428125
2.483,0.0471875,-0.0409375
2.484,0.0471875,-0.039375
2.485,0.046875,-0.0378125
2.486,0.0465625,-0.0359375
2.487,0.0459375,-0.034375
2.488,0.045625,-0.0321875
2.489,0.045,-0.030625
2.49,0.0446875,-0.0284375
2.491,0.0440625,-0.02625
2.492,0.0434375,-0.024375
2.493,0.043125,-0.0221875
2.494,0.0428125,-0.0203125
2.495,0.0421875,-0.0178125
2.496,0.041875,-0.015625
2.497,0.041875,-0.0134375
2.498,0.04125,-0.0109375
2.499,0.0409375,-0.0084375
2.5,0.040625,-0.0059375
2.501,0.04,-0.0034375
2.502,0.0390625,-0.0009375
2.503,0.038125,0.0015625
2.504,0.0371875,0.004375
2.505,0.03625,0.006875
2.506,0.035,0.01
2.507,0.03375,0.0125
2.508,0.0325,0.0153125
2.509,0.03125,0.018125
2.51,0.03,0.0209375
2.511,0.0290625,0.02375
2.512,0.028125,0.0265625
2.513,0.0271875,0.0290625
2.514,0.02625,0.031875
2.515,0.025625,0.0346875
2.516,0.025,0.0375
2.517,0.0240625,0.04
2.518,0.02375,0.0428125
2.519,0.023125,0.0453125
2.52,0.0221875,0.0478125
2.521,0.021875,0.0503125
2.522,0.0209375,0.0525
2.523,0.02,0.055
2.524,0.0190625,0.056875
2.525,0.018125,0.05875
2.526,0.0171875,0.0609375
2.527,0.01625,0.0625
2.528,0.015,0.0640625
2.529,0.0140625,0.065625
2.53,0.0134375,0.066875
2.531,0.0125,0.0675
2.532,0.011875,0.06875
2.533,0.0115625,0.0690625
2.534,0.01125,0.0696875
2.535,0.010625,0.07
2.536,0.010625,0.07
2.537,0.010625,0.07
2.538,0.0103125,0.0696875
2.539,0.0103125,0.069375
2.54,0.0103125,0.0690625
2.541,0.01,0.0684375
2.542,0.0096875,0.0675
2.543,0.009375,0.0665625
2.544,0.0090625,0.0659375
2.545,0.0084375,0.0646875
2.546,0.008125,0.06375
2.547,0.0075,0.0625
2.548,0.0071875,0.0609375
2.549,0.0065625,0.0596875
2.55,0.0065625,0.0578125
2.551,0.00625,0.05625
2.552,0.0059375,0.0546875
2.553,0.00625,0.0525
2.554,0.00625,0.050625
2.555,0.0065625,0.0484375
2.556,0.006875,0.04625
2.557,0.0075,0.044375
2.558,0.0078125,0.041875
2.559,0.0084375,0.0396875
2.56,0.00875,0.0371875
2.561,0.009375,0.035
2.562,0.0096875,0.0325
2.563,0.0103125,0.0303125
2.564,0.0103125,0.0278125
2.565,0.010625,0.025625
2.566,0.0109375,0.023125
2.567,0.01125,0.0209375
2.568,0.01125,0.0184375
2.569,0.0115625,0.0159375
2.57,0.011875,0.01375
2.571,0.0121875,0.01125
2.572,0.0128125,0.00875
2.573,0.013125,0.00625
2.574,0.01375,0.00375
2.575,0.0146875,0.00125
2.576,0.0153125,-0.00125
2.577,0.0159375,-0.00375
2.578,0.016875,-0.00625
2.579,0.0178125,-0.00875
2.58,0.018125,-0.0109375
2.581,0.0190625,-0.0134375
2.582,0.0196875,-0.0159375
2.583,0.02,-0.018125
2.584,0.0203125,-0.0203125
2.585,0.020625,-0.0225
2.586,0.0209375,-0.024375
2.587,0.0209375,-0.0265625
2.588,0.0215625,-0.028125
2.589,0.0215625,-0.03
2.59,0.021875,-0.0321875
2.591,0.0221875,-0.03375
2.592,0.0228125,-0.035625
2.593,0.023125,-0.0371875
2.594,0.0240625,-0.03875
2.595,0.024375,-0.040625
2.596,0.0253125,-0.041875
2.597,0.025625,-0.0434375
2.598,0.0265625,-0.0453125
2.599,0.026875,-0.0465625
2.6,0.0278125,-0.0478125
2.601,0.028125,-0.049375
2.602,0.02875,-0.050625
2.603,0.02875,-0.051875
2.604,0.029375,-0.053125
2.605,0.029375,-0.054375
2.606,0.029375,-0.0553125
2.607,0.029375,-0.05625
2.608,0.0296875,-0.0575
2.609,0.0296875,-0.0584375
2.61,0.0296875,-0.059375
2.611,0.0296875,-0.0603125
2.612,0.03,-0.06125
2.613,0.0303125,-0.061875
2.614,0.030625,-0.0628125
2.615,0.0309375,-0.06375
2.616,0.03125,-0.0646875
2.617,0.031875,-0.0653125
2.618,0.0321875,-0.06625
2.619,0.0325,-0.066875
2.62,0.0328125,-0.0675
2.621,0.0328125,-0.0684375
2.622,0.033125,-0.0690625
2.623,0.033125,-0.07
2.624,0.0328125,-0.0703125
2.625,0.0328125,-0.0709375
2.626,0.0325,-0.07125
2.627,0.0325,-0.071875
2.628,0.0321875,-0.0721875
2.629,0.031875,-0.0725
2.63,0.031875,-0.0728125
2.631,0.031875,-0.0728125
2.632,0.031875,-0.073125
2.633,0.0321875,-0.073125
2.634,0.0325,-0.073125
2.635,0.0328125,-0.0734375
2.636,0.0334375,-0.0734375
2.637,0.03375,-0.073125
2.638,0.034375,-0.073125
2.639,0.035,-0.073125
2.64,0.0353125,-0.073125
2.641,0.035625,-0.0728125
2.642,0.03625,-0.0725
2.643,0.0365625,-0.0721875
2.644,0.036875,-0.071875
2.645,0.0371875,-0.07125
2.646,0.0371875,-0.0709375
2.647,0.0375,-0.070625
2.648,0.0378125,-0.07
2.649,0.0378125,-0.0690625
2.65,0.0384375,-0.06875
2.651,0.03875,-0.0678125
2.652,0.0390625,-0.0675
2.653,0.0396875,-0.066875
2.654,0.04,-0.06625
2.655,0.0409375,-0.0659375
2.656,0.0415625,-0.065625
2.657,0.041875,-0.065
2.658,0.0421875,-0.065
2.659,0.0428125,-0.0646875
2.66,0.043125,-0.0646875
2.661,0.0434375,-0.0646875
2.662,0.04375,-0.0646875
2.663,0.04375,-0.065
2.664,0.04375,-0.065
2.665,0.0434375,-0.0653125
2.666,0.0434375,-0.0659375
2.667,0.043125,-0.0659375
2.668,0.0428125,-0.0665625
2.669,0.0425,-0.066875
2.67,0.0425,-0.0671875
2.671,0.0425,-0.0678125
2.672,0.0421875,-0.068125
2.673,0.0425,-0.0690625
2.674,0.0425,-0.069375
2.675,0.0425,-0.0703125
2.676,0.0428125,-0.070625
2.677,0.0428125,-0.0715625
2.678,0.043125,-0.0725
2.679,0.0434375,-0.073125
2.68,0.0434375,-0.0740625
2.681,0.0434375,-0.075
2.682,0.0434375,-0.0759375
2.683,0.0434375,-0.076875
2.684,0.043125,-0.0778125
2.685,0.0428125,-0.07875
2.686,0.0425,-0.079375
2.687,0.0421875,-0.0803125
2.688,0.041875,-0.0809375
2.689,0.0415625,-0.0815625
2.69,0.04125,-0.0825
2.691,0.0409375,-0.0834375
2.692,0.0409375,-0.08375
2.693,0.0409375,-0.084375
2.694,0.0409375,-0.0853125
2.695,0.0409375,-0.085625
2.696,0.0409375,-0.0865625
2.697,0.04125,-0.0871875
2.698,0.04125,-0.088125
2.699,0.04125,-0.08875
2.7,0.04125,-0.089375
2.701,0.0409375,-0.090625
2.702,0.0409375,-0.09125
2.703,0.0403125,-0.0921875
2.704,0.0403125,-0.093125
2.705,0.0396875,-0.094375
2.706,0.039375,-0.095
2.707,0.03875,-0.09625
2.708,0.0384375,-0.096875
2.709,0.038125,-0.098125
2.71,0.0375,-0.09875
2.711,0.0375,-0.0996875
2.712,0.0371875,-0.100625
2.713,0.0371875,-0.10125
2.714,0.0371875,-0.1021875
2.715,0.0371875,-0.103125
2.716,0.0375,-0.1034375
2.717,0.0375,-0.104375
2.718,0.0378125,-0.105
2.719,0.0378125,-0.1053125
2.72,0.0378125,-0.10625
2.721,0.0378125,-0.1065625
2.722,0.0378125,-0.106875
2.723,0.0375,-0.1075
2.724,0.0375,-0.1078125
2.725,0.036875,-0.108125
2.726,0.0365625,-0.1084375
2.727,0.0365625,-0.10875
2.728,0.0359375,-0.10875
2.729,0.0359375,-0.10875
2.73,0.035625,-0.10875
2.731,0.035625,-0.10875
2.732,0.035625,-0.10875
2.733,0.035625,-0.10875
2.734,0.035625,-0.10875
2.735,0.0359375,-0.1084375
2.736,0.03625,-0.1084375
2.737,0.03625,-0.1084375
2.738,0.0365625,-0.108125
2.739,0.0365625,-0.108125
2.74,0.0365625,-0.1078125
2.741,0.0365625,-0.1075
2.742,0.0365625,-0.1075
2.743,0.0359375,-0.106875
2.744,0.0359375,-0.106875
2.745,0.0353125,-0.10625
2.746,0.035,-0.1059375
2.747,0.0346875,-0.1053125
2.748,0.0340625,-0.105
2.749,0.03375,-0.1046875
2.75,0.0334375,-0.10375
2.751,0.033125,-0.103125
2.752,0.0328125,-0.1028125
2.753,0.0328125,-0.1021875
2.754,0.0328125,-0.10125
2.755,0.0325,-0.1009375
2.756,0.0325,-0.1
2.757,0.0325,-0.0990625
2.758,0.0325,-0.0984375
2.759,0.0325,-0.0978125
2.76,0.0325,-0.096875
2.761,0.0321875,-0.09625
2.762,0.0315625,-0.0953125
2.763,0.03125,-0.094375
2.764,0.0309375,-0.0934375
2.765,0.0303125,-0.0928125
2.766,0.029375,-0.091875
2.767,0.0290625,-0.0909375
2.768,0.02875,-0.09
2.769,0.028125,-0.0890625
2.77,0.0275,-0.088125
2.771,0.0275,-0.0875
2.772,0.0271875,-0.0865625
2.773,0.026875,-0.085625
2.774,0.026875,-0.085
2.775,0.026875,-0.0840625
2.776,0.026875,-0.08375
2.777,0.0271875,-0.0828125
2.778,0.0271875,-0.0825
2.779,0.0271875,-0.0815625
2.78,0.0271875,-0.08125
2.781,0.0271875,-0.0809375
2.782,0.026875,-0.0803125
2.783,0.026875,-0.0796875
2.784,0.026875,-0.079375
2.785,0.02625,-0.0790625
2.786,0.02625,-0.07875
2.787,0.0259375,-0.0784375
2.788,0.025625,-0.0784375
2.789,0.025625,-0.0784375
2.79,0.025625,-0.0784375
2.791,0.025625,-0.0784375
2.792,0.025625,-0.07875
2.793,0.0259375,-0.079375
2.794,0.0259375,-0.0796875
2.795,0.02625,-0.0803125
2.796,0.026875,-0.0809375
2.797,0.0271875,-0.0815625
2.798,0.0271875,-0.0825
2.799,0.0275,-0.0834375
2.8,0.0275,-0.0840625
2.801,0.0275,-0.085
2.802,0.0275,-0.0859375
2.803,0.0275,-0.086875
2.804,0.0271875,-0.0875
2.805,0.0265625,-0.088125
2.806,0.02625,-0.0890625
2.807,0.0259375,-0.089375
2.808,0.0253125,-0.09
2.809,0.025,-0.0909375
2.81,0.0246875,-0.09125
2.811,0.024375,-0.091875
2.812,0.0240625,-0.0921875
2.813,0.0240625,-0.0928125
2.814,0.0240625,-0.093125
2.815,0.0240625,-0.0934375
2.816,0.0240625,-0.09375
2.817,0.0240625,-0.0940625
2.818,0.0240625,-0.0940625
2.819,0.0240625,-0.0940625
2.82,0.0240625,-0.0940625
2.821,0.02375,-0.0940625
2.822,0.02375,-0.09375
2.823,0.023125,-0.0934375
2.824,0.0228125,-0.093125
2.825,0.0225,-0.0928125
2.826,0.021875,-0.0921875
2.827,0.0215625,-0.09125
2.828,0.0209375,-0.0909375
2.829,0.020625,-0.09
2.83,0.0203125,-0.0890625
2.831,0.02,-0.0884375
2.832,0.02,-0.0878125
2.833,0.02,-0.0871875
2.834,0.02,-0.08625
2.835,0.02,-0.0853125
2.836,0.02,-0.085
2.837,0.02,-0.0840625
2.838,0.02,-0.083125
2.839,0.0203125,-0.0828125
2.84,0.0203125,-0.081875
2.841,0.02,-0.08125
2.842,0.02,-0.080625
2.843,0.0196875,-0.0796875
2.844,0.0196875,-0.0790625
2.845,0.0190625,-0.078125
2.846,0.0190625,-0.0775
2.847,0.0184375,-0.076875
2.848,0.018125,-0.0759375
2.849,0.018125,-0.075
2.85,0.0175,-0.0746875
2.851,0.0175,-0.07375
2.852,0.0175,-0.0734375
2.853,0.0175,-0.0725
2.854,0.0175,-0.0721875
2.855,0.0178125,-0.071875
2.856,0.0178125,-0.07125
2.857,0.018125,-0.07125
2.858,0.018125,-0.070625
2.859,0.018125,-0.070625
2.86,0.018125,-0.0703125
2.861,0.018125,-0.0703125
2.862,0.018125,-0.07
2.863,0.018125,-0.07
2.864,0.0178125,-0.07
2.865,0.0175,-0.07
2.866,0.0175,-0.0703125
2.867,0.016875,-0.0703125
2.868,0.016875,-0.0703125
2.869,0.016875,-0.070625
2.87,0.0165625,-0.0709375
2.871,0.0165625,-0.07125
2.872,0.016875,-0.0715625
2.873,0.016875,-0.0721875
2.874,0.0171875,-0.0725
2.875,0.0171875,-0.0728125
2.876,0.0175,-0.073125
2.877,0.018125,-0.0734375
2.878,0.018125,-0.0740625
2.879,0.0184375,-0.0740625
2.88,0.0184375,-0.074375
2.881,0.0184375,-0.074375
2.882,0.0184375,-0.0746875
2.883,0.0184375,-0.0746875
2.884,0.018125,-0.074375
2.885,0.018125,-0.074375
2.886,0.0178125,-0.074375
2.887,0.0175,-0.0740625
2.888,0.0171875,-0.07375
2.889,0.016875,-0.0734375
2.89,0.016875,-0.073125
2.891,0.016875,-0.0728125
2.892,0.016875,-0.0721875
2.893,0.016875,-0.071875
2.894,0.0171875,-0.07125
2.895,0.0175,-0.0709375
2.896,0.0175,-0.070625
2.897,0.0178125,-0.07
2.898,0.0178125,-0.0690625
2.899,0.0178125,-0.06875
2.9,0.018125,-0.0684375
2.901,0.0178125,-0.0678125
2.902,0.0178125,-0.0671875
2.903,0.0178125,-0.066875
2.904,0.0175,-0.06625
2.905,0.0171875,-0.0659375
2.906,0.0171875,-0.065625
2.907,0.0165625,-0.065625
2.908,0.0165625,-0.0653125
2.909,0.01625,-0.0653125
2.91,0.01625,-0.065625
2.911,0.01625,-0.0659375
2.912,0.01625,-0.0659375
2.913,0.01625,-0.0665625
2.914,0.01625,-0.066875
2.915,0.0165625,-0.0671875
2.916,0.016875,-0.068125
2.917,0.0171875,-0.06875
2.918,0.0171875,-0.0690625
2.919,0.0175,-0.07
2.92,0.0175,-0.0703125
2.921,0.0175,-0.070625
2.922,0.0175,-0.07125
2.923,0.0175,-0.0715625
2.924,0.0175,-0.071875
2.925,0.016875,-0.0721875
2.926,0.016875,-0.0721875
2.927,0.0165625,-0.0721875
2.928,0.0159375,-0.0721875
2.929,0.0159375,-0.0721875
2.93,0.015625,-0.0721875
2.931,0.0153125,-0.071875
2.932,0.015,-0.0715625
2.933,0.015,-0.07125
2.934,0.015,-0.0709375
2.935,0.015,-0.070625
2.936,0.0153125,-0.07
2.937,0.0153125,-0.0696875
2.938,0.0153125,-0.06875
2.939,0.015625,-0.0684375
2.94,0.015625,-0.0678125
2.941,0.015625,-0.0671875
2.942,0.015625,-0.06625
2.943,0.015625,-0.0659375
2.944,0.015625,-0.065
2.945,0.015625,-0.064375
2.946,0.015625,-0.0634375
2.947,0.015625,-0.063125
2.948,0.015625,-0.0621875
2.949,0.0159375,-0.061875
2.95,0.0159375,-0.0609375
2.951,0.01625,-0.060625
2.952,0.0165625,-0.06
2.953,0.016875,-0.0596875
2.954,0.0175,-0.059375
2.955,0.0178125,-0.059375
2.956,0.01875,-0.0590625
2.957,0.0190625,-0.0590625
2.958,0.02,-0.0590625
2.959,0.020625,-0.0590625
2.96,0.0209375,-0.059375
2.961,0.021875,-0.059375
2.962,0.0221875,-0.0596875
2.963,0.0228125,-0.0596875
2.964,0.023125,-0.06
2.965,0.0234375,-0.0603125
2.966,0.0240625,-0.060625
2.967,0.024375,-0.060625
2.968,0.024375,-0.0609375
2.969,0.025,-0.0609375
2.97,0.0253125,-0.0609375
2.971,0.025625,-0.06125
2.972,0.0259375,-0.06125
2.973,0.02625,-0.06125
2.974,0.026875,-0.0615625
2.975,0.0271875,-0.06125
2.976,0.0275,-0.06125
2.977,0.0278125,-0.06125
2.978,0.028125,-0.06125
2.979,0.0284375,-0.0609375
2.98,0.0284375,-0.0609375
2.981,0.02875,-0.0603125
2.982,0.02875,-0.06
2.983,0.0284375,-0.0596875
2.984,0.0284375,-0.0590625
2.985,0.028125,-0.0584375
2.986,0.028125,-0.058125
2.987,0.0278125,-0.0578125
2.988,0.0271875,-0.056875
2.989,0.0271875,-0.05625
2.99,0.026875,-0.0559375
2.991,0.0265625,-0.055
2.992,0.02625,-0.0540625
2.993,0.02625,-0.05375
2.994,0.02625,-0.0534375
2.995,0.0259375,-0.0528125
2.996,0.0259375,-0.051875
2.997,0.0259375,-0.0515625
2.998,0.025625,-0.0509375
2.999,0.025625,-0.0503125
3,0.025625,-0.05
3.001,0.0253125,-0.0496875
3.002,0.025,-0.0490625
3.003,0.025,-0.04875
3.004,0.024375,-0.048125
3.005,0.024375,-0.0478125
3.006,0.02375,-0.0471875
3.007,0.0234375,-0.046875
3.008,0.0234375,-0.04625
3.009,0.023125,-0.0459375
3.01,0.023125,-0.0453125
3.011,0.023125,-0.045
3.012,0.023125,-0.0446875
3.013,0.023125,-0.0440625
3.014,0.023125,-0.0440625
3.015,0.0234375,-0.0434375
3.016,0.02375,-0.0434375
3.017,0.0240625,-0.043125
3.018,0.024375,-0.0428125
3.019,0.0246875,-0.0428125
3.02,0.025,-0.0425
3.021,0.025,-0.0425
3.022,0.0253125,-0.0421875
3.023,0.025625,-0.0421875
3.024,0.025625,-0.0421875
3.025,0.0259375,-0.041875
3.026,0.0259375,-0.041875
3.027,0.0259375,-0.041875
3.028,0.02625,-0.0415625
3.029,0.02625,-0.0415625
3.03,0.026875,-0.04125
3.031,0.026875,-0.04125
3.032,0.0271875,-0.04125
3.033,0.0278125,-0.0409375
3.034,0.028125,-0.0409375
3.035,0.0284375,-0.0409375
3.036,0.02875,-0.0409375
3.037,0.029375,-0.0409375
3.038,0.0296875,-0.0409375
3.039,0.0303125,-0.04125
3.04,0.0303125,-0.04125
3.041,0.030625,-0.04125
3.042,0.0309375,-0.04125
3.043,0.0309375,-0.04125
3.044,0.03125,-0.04125
3.045,0.03125,-0.04125
3.046,0.03125,-0.04125
3.047,0.03125,-0.04125
3.048,0.03125,-0.04125
3.049,0.03125,-0.04125
3.05,0.03125,-0.04125
3.051,0.03125,-0.0409375
3.052,0.03125,-0.0409375
3.053,0.0315625,-0.040625
3.054,0.031875,-0.0403125
3.055,0.0321875,-0.0403125
3.056,0.0321875,-0.0396875
3.057,0.0325,-0.0396875
3.058,0.0328125,-0.039375
3.059,0.0328125,-0.0390625
3.06,0.0328125,-0.0390625
3.061,0.0328125,-0.03875
3.062,0.0328125,-0.0384375
3.063,0.0325,-0.0384375
3.064,0.0325,-0.038125
3.065,0.031875,-0.038125
3.066,0.0315625,-0.038125
3.067,0.03125,-0.038125
3.068,0.0309375,-0.0384375
3.069,0.030625,-0.0384375
3.07,0.03,-0.03875
3.071,0.0296875,-0.0390625
3.072,0.0296875,-0.039375
3.073,0.029375,-0.0396875
3.074,0.0290625,-0.0403125
3.075,0.02875,-0.040625
3.076,0.02875,-0.0409375
3.077,0.0284375,-0.041875
3.078,0.0284375,-0.0425
3.079,0.028125,-0.0428125
3.08,0.028125,-0.0434375
3.081,0.0275,-0.0440625
3.082,0.0271875,-0.0446875
3.083,0.026875,-0.045
3.084,0.02625,-0.0459375
3.085,0.0259375,-0.04625
3.086,0.025,-0.0471875
3.087,0.0246875,-0.0475
3.088,0.0240625,-0.048125
3.089,0.02375,-0.04875
3.09,0.023125,-0.0490625
3.091,0.0228125,-0.049375
3.092,0.0225,-0.05
3.093,0.0221875,-0.0503125
3.094,0.021875,-0.0509375
3.095,0.021875,-0.05125
3.096,0.021875,-0.0515625
3.097,0.021875,-0.051875
3.098,0.021875,-0.0521875
3.099,0.021875,-0.0521875
3.1,0.021875,-0.0521875
3.101,0.021875,-0.0525
3.102,0.021875,-0.0521875
3.103,0.0215625,-0.0521875
3.104,0.0215625,-0.0521875
3.105,0.0215625,-0.0515625
3.106,0.02125,-0.05125
3.107,0.0209375,-0.0509375
3.108,0.020625,-0.050625
3.109,0.020625,-0.05
3.11,0.020625,-0.0496875
3.111,0.020625,-0.0490625
3.112,0.020625,-0.04875
3.113,0.020625,-0.0484375
3.114,0.020625,-0.0478125
3.115,0.020625,-0.0478125
3.116,0.0209375,-0.0475
3.117,0.02125,-0.0471875
3.118,0.0215625,-0.0471875
3.119,0.0215625,-0.046875
3.12,0.0215625,-0.046875
3.121,0.021875,-0.046875
3.122,0.021875,-0.046875
3.123,0.021875,-0.046875
3.124,0.021875,-0.0465625
3.125,0.021875,-0.0465625
3.126,0.0215625,-0.0465625
3.127,0.0215625,-0.0465625
3.128,0.02125,-0.0465625
3.129,0.02125,-0.0465625
3.13,0.02125,-0.0465625
3.131,0.02125,-0.0465625
3.132,0.02125,-0.0465625
3.133,0.02125,-0.0465625
3.134,0.02125,-0.0465625
3.135,0.02125,-0.0465625
3.136,0.02125,-0.0465625
3.137,0.0215625,-0.046875
3.138,0.0215625,-0.046875
3.139,0.0215625,-0.046875
3.14,0.0215625,-0.046875
3.141,0.0215625,-0.046875
3.142,0.0215625,-0.046875
3.143,0.0215625,-0.046875
3.144,0.02125,-0.046875
3.145,0.02125,-0.046875
3.146,0.0209375,-0.046875
3.147,0.020625,-0.046875
3.148,0.020625,-0.046875
3.149,0.020625,-0.0465625
3.15,0.0203125,-0.0465625
3.151,0.0203125,-0.0465625
3.152,0.020625,-0.04625
3.153,0.020625,-0.04625
3.154,0.020625,-0.0459375
3.155,0.0209375,-0.045625
3.156,0.0209375,-0.0453125
3.157,0.02125,-0.0453125
3.158,0.0215625,-0.045
3.159,0.0215625,-0.0446875
3.16,0.021875,-0.0446875
3.161,0.021875,-0.0440625
3.162,0.021875,-0.0440625
3.163,0.021875,-0.04375
3.164,0.021875,-0.04375
3.165,0.021875,-0.043125
3.166,0.0215625,-0.043125
3.167,0.0215625,-0.043125
3.168,0.0215625,-0.0428125
3.169,0.0215625,-0.0428125
3.17,0.0215625,-0.0425
3.171,0.0215625,-0.0425
3.172,0.0215625,-0.0425
3.173,0.021875,-0.0425
3.174,0.021875,-0.0425
3.175,0.0221875,-0.0425
3.176,0.0225,-0.0425
3.177,0.0225,-0.0425
3.178,0.0228125,-0.0425
3.179,0.0228125,-0.0425
3.18,0.0228125,-0.0425
3.181,0.023125,-0.0425
3.182,0.023125,-0.0425
3.183,0.0228125,-0.0425
3.184,0.0228125,-0.0425
3.185,0.0228125,-0.0425
3.186,0.0228125,-0.0425
3.187,0.0228125,-0.0425
3.188,0.0228125,-0.0425
3.189,0.0228125,-0.0425
3.19,0.023125,-0.0425
3.191,0.023125,-0.0428125
3.192,0.02375,-0.0428125
3.193,0.0240625,-0.0428125
3.194,0.024375,-0.043125
3.195,0.025,-0.043125
3.196,0.0253125,-0.043125
3.197,0.02625,-0.043125
3.198,0.026875,-0.0428125
3.199,0.0271875,-0.0428125
3.2,0.0275,-0.0428125
3.201,0.028125,-0.0425
3.202,0.0284375,-0.0421875
3.203,0.02875,-0.041875
3.204,0.0290625,-0.041875
3.205,0.0290625,-0.0415625
3.206,0.0296875,-0.04125
3.207,0.0296875,-0.0409375
3.208,0.0303125,-0.040625
3.209,0.0303125,-0.0403125
3.21,0.0309375,-0.0403125
3.211,0.03125,-0.0396875
3.212,0.0315625,-0.0396875
3.213,0.0321875,-0.039375
3.214,0.0328125,-0.0390625
3.215,0.0334375,-0.0390625
3.216,0.03375,-0.03875
3.217,0.0340625,-0.0384375
3.218,0.0346875,-0.038125
3.219,0.035,-0.038125
3.22,0.035,-0.038125
3.221,0.035,-0.0378125
3.222,0.035,-0.0378125
3.223,0.035,-0.0378125
3.224,0.0346875,-0.0378125
3.225,0.034375,-0.0378125
3.226,0.0340625,-0.0378125
3.227,0.03375,-0.0378125
3.228,0.0334375,-0.038125
3.229,0.0328125,-0.0384375
3.23,0.0328125,-0.0384375
3.231,0.0325,-0.03875
3.232,0.0321875,-0.039375
3.233,0.0321875,-0.0396875
3.234,0.031875,-0.04
3.235,0.031875,-0.0403125
3.236,0.031875,-0.0409375
3.237,0.031875,-0.04125
3.238,0.031875,-0.0415625
3.239,0.031875,-0.041875
3.24,0.031875,-0.0425
3.241,0.031875,-0.0425
3.242,0.0315625,-0.043125
3.243,0.0315625,-0.043125
3.244,0.03125,-0.0434375
3.245,0.0309375,-0.04375
3.246,0.0309375,-0.044375
3.247,0.030625,-0.044375
3.248,0.030625,-0.0446875
3.249,0.030625,-0.045
3.25,0.0303125,-0.0453125
3.251,0.030625,-0.0453125
3.252,0.030625,-0.045625
3.253,0.030625,-0.04625
3.254,0.0309375,-0.04625
3.255,0.03125,-0.0465625
3.256,0.0315625,-0.046875
3.257,0.0321875,-0.0471875
3.258,0.0325,-0.0471875
3.259,0.0328125,-0.0471875
3.26,0.0328125,-0.0475
3.261,0.033125,-0.0475
3.262,0.033125,-0.0475
3.263,0.0334375,-0.0475
3.264,0.0334375,-0.0475
3.265,0.0334375,-0.0475
3.266,0.0334375,-0.0475
3.267,0.0334375,-0.0475
3.268,0.033125,-0.0475
3.269,0.033125,-0.0475
3.27,0.0334375,-0.0471875
3.271,0.0334375,-0.0471875
3.272,0.0334375,-0.0471875
3.273,0.03375,-0.0471875
3.274,0.0340625,-0.0471875
3.275,0.0340625,-0.046875
3.276,0.034375,-0.046875
3.277,0.0346875,-0.0465625
3.278,0.035,-0.0465625
3.279,0.035,-0.0459375
3.28,0.0353125,-0.045625
3.281,0.035625,-0.0453125
3.282,0.035625,-0.0446875
3.283,0.035625,-0.044375
3.284,0.035625,-0.0434375
3.285,0.035625,-0.0428125
3.286,0.035625,-0.0425
3.287,0.035625,-0.041875
3.288,0.035625,-0.04125
3.289,0.035625,-0.0409375
3.29,0.0359375,-0.04
3.291,0.0359375,-0.0396875
3.292,0.0359375,-0.0390625
3.293,0.0365625,-0.03875
3.294,0.0365625,-0.0384375
3.295,0.0371875,-0.0378125
3.296,0.0375,-0.0375
3.297,0.0378125,-0.0375
3.298,0.0384375,-0.0371875
3.299,0.0384375,-0.036875
3.3,0.0390625,-0.036875
3.301,0.0390625,-0.0365625
3.302,0.0390625,-0.0365625
3.303,0.0390625,-0.0365625
3.304,0.0390625,-0.0365625
3.305,0.0390625,-0.0365625
3.306,0.0390625,-0.036875
3.307,0.03875,-0.036875
3.308,0.0384375,-0.036875
3.309,0.038125,-0.0371875
3.31,0.038125,-0.0371875
3.311,0.038125,-0.0378125
3.312,0.038125,-0.0378125
3.313,0.038125,-0.038125
3.314,0.038125,-0.0384375
3.315,0.0384375,-0.03875
3.316,0.0384375,-0.03875
3.317,0.03875,-0.0390625
3.318,0.03875,-0.039375
3.319,0.03875,-0.039375
3.32,0.0390625,-0.039375
3.321,0.03875,-0.0396875
3.322,0.03875,-0.0396875
3.323,0.03875,-0.0396875
3.324,0.0384375,-0.0396875
3.325,0.038125,-0.0396875
3.326,0.0378125,-0.0396875
3.327,0.0375,-0.0396875
3.328,0.0371875,-0.0396875
3.329,0.0365625,-0.04
3.33,0.0365625,-0.04
3.331,0.03625,-0.04
3.332,0.03625,-0.04
3.333,0.03625,-0.04
3.334,0.03625,-0.04
3.335,0.03625,-0.04
3.336,0.0365625,-0.04
3.337,0.0365625,-0.0396875
3.338,0.036875,-0.0396875
3.339,0.0371875,-0.0396875
3.34,0.0371875,-0.0396875
3.341,0.0371875,-0.0396875
3.342,0.0375,-0.0396875
3.343,0.0375,-0.0396875
3.344,0.0371875,-0.0396875
3.345,0.0371875,-0.0396875
3.346,0.0371875,-0.0396875
3.347,0.0371875,-0.0396875
3.348,0.036875,-0.0396875
3.349,0.036875,-0.0396875
3.35,0.0365625,-0.039375
3.351,0.0365625,-0.039375
3.352,0.036875,-0.039375
3.353,0.036875,-0.039375
3.354,0.036875,-0.039375
3.355,0.036875,-0.039375
3.356,0.036875,-0.039375
3.357,0.0371875,-0.039375
3.358,0.0371875,-0.039375
3.359,0.0371875,-0.039375
3.36,0.0371875,-0.039375
3.361,0.0371875,-0.0390625
3.362,0.036875,-0.0390625
3.363,0.0365625,-0.0390625
3.364,0.0365625,-0.03875
3.365,0.0359375,-0.03875
3.366,0.035625,-0.03875
3.367,0.0353125,-0.0384375
3.368,0.035,-0.0384375
3.369,0.034375,-0.0384375
3.37,0.034375,-0.0384375
3.371,0.0340625,-0.038125
3.372,0.03375,-0.038125
3.373,0.03375,-0.0384375
3.374,0.03375,-0.0384375
3.375,0.03375,-0.0384375
3.376,0.03375,-0.0384375
3.377,0.03375,-0.03875
3.378,0.0334375,-0.0390625
3.379,0.0334375,-0.0390625
3.38,0.0334375,-0.039375
3.381,0.0334375,-0.0396875
3.382,0.0334375,-0.04
3.383,0.033125,-0.0403125
3.384,0.033125,-0.040625
3.385,0.033125,-0.0409375
3.386,0.0328125,-0.04125
3.387,0.0328125,-0.04125
3.388,0.0328125,-0.041875
3.389,0.0328125,-0.041875
3.39,0.0328125,-0.041875
3.391,0.0328125,-0.0421875
3.392,0.0334375,-0.0421875
3.393,0.03375,-0.0421875
3.394,0.03375,-0.0421875
3.395,0.034375,-0.0421875
3.396,0.0346875,-0.0421875
3.397,0.035,-0.041875
3.398,0.0353125,-0.041875
3.399,0.035625,-0.04125
3.4,0.0359375,-0.04125
3.401,0.03625,-0.040625
3.402,0.03625,-0.0403125
3.403,0.03625,-0.0396875
3.404,0.03625,-0.039375
3.405,0.03625,-0.0390625
3.406,0.0359375,-0.0384375
3.407,0.0359375,-0.0375
3.408,0.0359375,-0.0365625
3.409,0.0359375,-0.0359375
3.41,0.03625,-0.0353125
3.411,0.03625,-0.034375
3.412,0.0365625,-0.03375
3.413,0.036875,-0.0328125
3.414,0.0371875,-0.031875
3.415,0.0375,-0.0309375
3.416,0.038125,-0.0303125
3.417,0.0384375,-0.029375
3.418,0.03875,-0.0284375
3.419,0.039375,-0.0278125
3.42,0.039375,-0.026875
3.421,0.0396875,-0.0259375
3.422,0.04,-0.0253125
3.423,0.04,-0.024375
3.424,0.0403125,-0.0240625
3.425,0.0403125,-0.0234375
3.426,0.0403125,-0.0225
3.427,0.0403125,-0.0221875
3.428,0.0403125,-0.0215625
3.429,0.040625,-0.02125
3.43,0.040625,-0.0209375
3.431,0.0409375,-0.0203125
3.432,0.04125,-0.0203125
3.433,0.0415625,-0.02
3.434,0.0421875,-0.0196875
3.435,0.0425,-0.019375
3.436,0.0428125,-0.019375
3.437,0.0434375,-0.0190625
3.438,0.04375,-0.0190625
3.439,0.0440625,-0.01875
3.44,0.044375,-0.0184375
3.441,0.044375,-0.018125
3.442,0.0446875,-0.018125
3.443,0.0446875,-0.0175
3.444,0.044375,-0.0171875
3.445,0.044375,-0.016875
3.446,0.044375,-0.01625
3.447,0.0440625,-0.0159375
3.448,0.0440625,-0.015625
3.449,0.0440625,-0.0146875
3.45,0.0440625,-0.0140625
3.451,0.044375,-0.01375
3.452,0.044375,-0.0128125
3.453,0.0446875,-0.0125
3.454,0.045,-0.0115625
3.455,0.0453125,-0.0109375
3.456,0.045625,-0.01
3.457,0.0459375,-0.009375
3.458,0.04625,-0.0084375
3.459,0.0465625,-0.0075
3.46,0.046875,-0.0065625
3.461,0.046875,-0.005625
3.462,0.046875,-0.0046875
3.463,0.046875,-0.00375
3.464,0.046875,-0.003125
3.465,0.046875,-0.0021875
3.466,0.046875,-0.00125
3.467,0.0465625,-0.0009375
3.468,0.0465625,-0.0003125
3.469,0.046875,0.000625
3.47,0.046875,0.0009375
3.471,0.046875,0.00125
3.472,0.0475,0.001875
3.473,0.0475,0.001875
3.474,0.048125,0.0021875
3.475,0.0484375,0.0021875
3.476,0.0490625,0.0021875
3.477,0.049375,0.0021875
3.478,0.0496875,0.001875
3.479,0.0503125,0.001875
3.48,0.0503125,0.001875
3.481,0.050625,0.0015625
3.482,0.050625,0.00125
3.483,0.050625,0.0009375
3.484,0.050625,0.0009375
3.485,0.050625,0.000625
3.486,0.050625,0.0003125
3.487,0.0503125,0
3.488,0.0503125,-0.0003125
3.489,0.0503125,-0.000625
3.49,0.0503125,-0.00125
3.491,0.0503125,-0.0015625
3.492,0.050625,-0.001875
3.493,0.050625,-0.0025
3.494,0.05125,-0.0028125
3.495,0.05125,-0.003125
3.496,0.0515625,-0.00375
3.497,0.051875,-0.0040625
3.498,0.0521875,-0.004375
3.499,0.0521875,-0.0046875
3.5,0.0521875,-0.0046875
3.501,0.0521875,-0.005
3.502,0.051875,-0.0053125
3.503,0.051875,-0.0053125
3.504,0.05125,-0.0053125
3.505,0.0509375,-0.0053125
3.506,0.050625,-0.0053125
3.507,0.0503125,-0.0053125
3.508,0.0496875,-0.0053125
3.509,0.049375,-0.0053125
3.51,0.0490625,-0.0053125
3.511,0.04875,-0.0053125
3.512,0.04875,-0.0053125
3.513,0.0484375,-0.0053125
3.514,0.0484375,-0.0053125
3.515,0.0484375,-0.0053125
3.516,0.0484375,-0.0053125
3.517,0.0484375,-0.0053125
3.518,0.048125,-0.005
3.519,0.048125,-0.005
3.52,0.048125,-0.005
3.521,0.0478125,-0.0046875
3.522,0.0475,-0.004375
3.523,0.0471875,-0.0040625
3.524,0.0465625,-0.00375
3.525,0.04625,-0.0034375
3.526,0.045625,-0.0028125
3.527,0.0453125,-0.0025
3.528,0.045,-0.001875
3.529,0.044375,-0.0015625
3.53,0.044375,-0.0009375
3.531,0.0440625,-0.000625
3.532,0.04375,0
3.533,0.04375,0.0003125
3.534,0.04375,0.000625
3.535,0.04375,0.00125
3.536,0.04375,0.00125
3.537,0.04375,0.001875
3.538,0.0434375,0.001875
3.539,0.0434375,0.0021875
3.54,0.0434375,0.0028125
3.541,0.043125,0.0028125
3.542,0.0428125,0.0034375
3.543,0.0425,0.0034375
3.544,0.0421875,0.0040625
3.545,0.0415625,0.0040625
3.546,0.04125,0.004375
3.547,0.0409375,0.005
3.548,0.0403125,0.005
3.549,0.04,0.0053125
3.55,0.0396875,0.005625
3.551,0.0396875,0.0059375
3.552,0.039375,0.0059375
3.553,0.0390625,0.0059375
3.554,0.0390625,0.00625
3.555,0.0390625,0.00625
3.556,0.03875,0.00625
3.557,0.03875,0.00625
3.558,0.03875,0.00625
3.559,0.0384375,0.00625
3.56,0.0384375,0.00625
3.561,0.038125,0.0065625
3.562,0.0375,0.0065625
3.563,0.0371875,0.0065625
3.564,0.0365625,0.0065625
3.565,0.03625,0.0065625
3.566,0.0359375,0.0065625
3.567,0.0353125,0.0065625
3.568,0.035,0.006875
3.569,0.034375,0.006875
3.57,0.0340625,0.006875
3.571,0.03375,0.0071875
3.572,0.0334375,0.0071875
3.573,0.0334375,0.0071875
3.574,0.0334375,0.0071875
3.575,0.033125,0.0071875
3.576,0.033125,0.0071875
3.577,0.033125,0.0071875
3.578,0.0328125,0.0071875
3.579,0.0328125,0.0071875
3.58,0.0328125,0.0071875
3.581,0.0321875,0.0071875
3.582,0.0321875,0.0071875
3.583,0.0315625,0.0071875
3.584,0.03125,0.0071875
3.585,0.030625,0.0071875
3.586,0.0303125,0.0071875
3.587,0.03,0.0075
3.588,0.029375,0.0075
3.589,0.0290625,0.0075
3.59,0.0284375,0.0075
3.591,0.0284375,0.0075
3.592,0.028125,0.0075
3.593,0.0278125,0.0075
3.594,0.0278125,0.0075
3.595,0.0278125,0.0075
3.596,0.0278125,0.0075
3.597,0.0278125,0.0075
3.598,0.0278125,0.0075
3.599,0.0278125,0.0075
3.6,0.0275,0.0071875
3.601,0.0275,0.0071875
3.602,0.0275,0.0071875
3.603,0.0271875,0.0071875
3.604,0.026875,0.0075
3.605,0.026875,0.0075
3.606,0.026875,0.0075
3.607,0.0265625,0.0075
3.608,0.02625,0.0075
3.609,0.02625,0.0078125
3.61,0.02625,0.0078125
3.611,0.02625,0.0078125
3.612,0.0265625,0.008125
3.613,0.026875,0.008125
3.614,0.0271875,0.008125
3.615,0.0275,0.008125
3.616,0.0278125,0.008125
3.617,0.028125,0.008125
3.618,0.02875,0.008125
3.619,0.02875,0.008125
3.62,0.0290625,0.0078125
3.621,0.0296875,0.0078125
3.622,0.0296875,0.0078125
3.623,0.0296875,0.0078125
3.624,0.03,0.0078125
3.625,0.03,0.0075
3.626,0.03,0.0075
3.627,0.0296875,0.0075
3.628,0.03,0.0075
3.629,0.03,0.0075
3.63,0.03,0.0075
3.631,0.03,0.0075
3.632,0.0303125,0.0075
3.633,0.030625,0.0075
3.634,0.030625,0.0075
3.635,0.0309375,0.0078125
3.636,0.03125,0.0078125
3.637,0.0315625,0.0078125
3.638,0.031875,0.008125
3.639,0.031875,0.008125
3.64,0.0321875,0.0084375
3.641,0.0321875,0.0084375
3.642,0.031875,0.0084375
3.643,0.031875,0.00875
3.644,0.031875,0.00875
3.645,0.03125,0.0090625
3.646,0.0309375,0.0090625
3.647,0.0309375,0.0090625
3.648,0.030625,0.009375
3.649,0.0303125,0.009375
3.65,0.0303125,0.0096875
3.651,0.03,0.0096875
3.652,0.03,0.01
3.653,0.0303125,0.01
3.654,0.0303125,0.01
3.655,0.0303125,0.0103125
3.656,0.030625,0.0103125
3.657,0.030625,0.0103125
3.658,0.0309375,0.010625
3.659,0.0309375,0.010625
3.66,0.0309375,0.010625
3.661,0.0309375,0.010625
3.662,0.030625,0.010625
3.663,0.0303125,0.0103125
3.664,0.0303125,0.0103125
3.665,0.0296875,0.0103125
3.666,0.029375,0.0103125
3.667,0.0290625,0.0103125
3.668,0.02875,0.01
3.669,0.028125,0.01
3.67,0.028125,0.01
3.671,0.0278125,0.01
3.672,0.0275,0.01
3.673,0.0275,0.01
3.674,0.0275,0.0103125
3.675,0.0275,0.0103125
3.676,0.0275,0.0103125
3.677,0.0275,0.010625
3.678,0.0275,0.0109375
3.679,0.0271875,0.01125
3.68,0.0271875,0.01125
3.681,0.0271875,0.011875
3.682,0.026875,0.011875
3.683,0.0265625,0.0121875
3.684,0.02625,0.0128125
3.685,0.025625,0.0128125
3.686,0.0253125,0.0134375
3.687,0.025,0.01375
3.688,0.024375,0.0140625
3.689,0.0240625,0.0146875
3.69,0.02375,0.015
3.691,0.0234375,0.015625
3.692,0.0234375,0.0159375
3.693,0.0234375,0.01625
3.694,0.0234375,0.016875
3.695,0.0234375,0.0171875
3.696,0.0234375,0.0178125
3.697,0.02375,0.018125
3.698,0.02375,0.01875
3.699,0.02375,0.0190625
3.7,0.02375,0.0190625
3.701,0.02375,0.0196875
3.702,0.0234375,0.0196875
3.703,0.023125,0.0196875
3.704,0.0228125,0.02
3.705,0.0221875,0.02
3.706,0.021875,0.0196875
3.707,0.0215625,0.0196875
3.708,0.0209375,0.0196875
3.709,0.0203125,0.019375
3.71,0.02,0.0190625
3.711,0.0196875,0.01875
3.712,0.019375,0.0184375
3.713,0.0190625,0.018125
3.714,0.01875,0.0178125
3.715,0.01875,0.0171875
3.716,0.01875,0.016875
3.717,0.0184375,0.01625
3.718,0.0184375,0.0159375
3.719,0.0184375,0.015625
3.72,0.018125,0.015
3.721,0.0178125,0.0146875
3.722,0.0175,0.014375
3.723,0.016875,0.01375
3.724,0.0165625,0.0134375
3.725,0.015625,0.013125
3.726,0.0153125,0.0128125
3.727,0.014375,0.0125
3.728,0.0140625,0.011875
3.729,0.013125,0.011875
3.73,0.0128125,0.01125
3.731,0.011875,0.01125
3.732,0.0115625,0.010625
3.733,0.01125,0.010625
3.734,0.010625,0.01
3.735,0.010625,0.0096875
3.736,0.0103125,0.0096875
3.737,0.0103125,0.009375
3.738,0.0103125,0.0090625
3.739,0.01,0.0090625
3.74,0.01,0.0090625
3.741,0.0096875,0.0090625
3.742,0.009375,0.0090625
3.743,0.009375,0.0090625
3.744,0.0090625,0.0090625
3.745,0.00875,0.009375
3.746,0.0084375,0.0096875
3.747,0.008125,0.01
3.748,0.0075,0.0103125
3.749,0.0075,0.0109375
3.75,0.0071875,0.01125
3.751,0.006875,0.0115625
3.752,0.006875,0.0121875
3.753,0.006875,0.0125
3.754,0.006875,0.0128125
3.755,0.0071875,0.0134375
3.756,0.0075,0.01375
3.757,0.0078125,0.014375
3.758,0.0078125,0.0146875
3.759,0.008125,0.0153125
3.76,0.0084375,0.015625
3.761,0.00875,0.01625
3.762,0.00875,0.0165625
3.763,0.00875,0.0175
3.764,0.00875,0.0178125
3.765,0.00875,0.01875
3.766,0.00875,0.0190625
3.767,0.00875,0.0196875
3.768,0.00875,0.020625
3.769,0.00875,0.0209375
3.77,0.00875,0.021875
3.771,0.00875,0.0221875
3.772,0.00875,0.0228125
3.773,0.0090625,0.023125
3.774,0.009375,0.0234375
3.775,0.009375,0.02375
3.776,0.0096875,0.0240625
3.777,0.01,0.0240625
3.778,0.01,0.0240625
3.779,0.0103125,0.0240625
3.78,0.0103125,0.0240625
3.781,0.0103125,0.0240625
3.782,0.0103125,0.0240625
3.783,0.01,0.02375
3.784,0.0096875,0.02375
3.785,0.009375,0.0234375
3.786,0.0090625,0.0234375
3.787,0.0084375,0.023125
3.788,0.008125,0.023125
3.789,0.0078125,0.0228125
3.79,0.0071875,0.0225
3.791,0.006875,0.0225
3.792,0.0065625,0.0225
3.793,0.00625,0.021875
3.794,0.0059375,0.021875
3.795,0.005625,0.0215625
3.796,0.005625,0.02125
3.797,0.005625,0.0209375
3.798,0.0053125,0.0209375
3.799,0.0053125,0.020625
3.8,0.0053125,0.0203125
3.801,0.005,0.02
3.802,0.005,0.02
3.803,0.0046875,0.0196875
3.804,0.004375,0.0190625
3.805,0.0040625,0.0190625
3.806,0.00375,0.01875
3.807,0.00375,0.0184375
3.808,0.0034375,0.018125
3.809,0.0034375,0.0178125
3.81,0.0034375,0.0175
3.811,0.0034375,0.0171875
3.812,0.00375,0.016875
3.813,0.0040625,0.0165625
3.814,0.004375,0.0159375
3.815,0.0053125,0.015625
3.816,0.005625,0.0146875
3.817,0.0065625,0.014375
3.818,0.0075,0.01375
3.819,0.008125,0.0128125
3.82,0.0090625,0.011875
3.821,0.01,0.01125
3.822,0.0109375,0.01
3.823,0.0115625,0.009375
3.824,0.0125,0.008125
3.825,0.013125,0.0071875
3.826,0.0140625,0.0059375
3.827,0.015,0.0046875
3.828,0.015625,0.00375
3.829,0.01625,0.0025
3.83,0.0175,0.00125
3.831,0.018125,0
3.832,0.019375,-0.00125
3.833,0.0203125,-0.0025
3.834,0.0215625,-0.0034375
3.835,0.0228125,-0.0046875
3.836,0.02375,-0.005625
3.837,0.025,-0.0065625
3.838,0.02625,-0.0078125
3.839,0.0275,-0.0084375
3.84,0.02875,-0.009375
3.841,0.0296875,-0.01
3.842,0.030625,-0.0109375
3.843,0.0315625,-0.0115625
3.844,0.0321875,-0.011875
3.845,0.033125,-0.0121875
3.846,0.03375,-0.0128125
3.847,0.0340625,-0.013125
3.848,0.034375,-0.0134375
3.849,0.035,-0.01375
3.85,0.0353125,-0.01375
3.851,0.0359375,-0.0140625
3.852,0.03625,-0.014375
3.853,0.0371875,-0.0146875
3.854,0.0378125,-0.0146875
3.855,0.038125,-0.0146875
3.856,0.03875,-0.015
3.857,0.039375,-0.015
3.858,0.0396875,-0.0153125
3.859,0.040625,-0.0153125
3.86,0.0409375,-0.0153125
3.861,0.04125,-0.0153125
3.862,0.041875,-0.015
3.863,0.041875,-0.015
3.864,0.0421875,-0.015
3.865,0.0421875,-0.0146875
3.866,0.0421875,-0.0146875
3.867,0.0421875,-0.0146875
3.868,0.041875,-0.014375
3.869,0.041875,-0.0140625
3.87,0.041875,-0.0140625
3.871,0.041875,-0.01375
3.872,0.041875,-0.01375
3.873,0.041875,-0.01375
3.874,0.041875,-0.01375
3.875,0.041875,-0.01375
3.876,0.041875,-0.01375
3.877,0.041875,-0.01375
3.878,0.041875,-0.0140625
3.879,0.041875,-0.0140625
3.88,0.0415625,-0.0140625
3.881,0.0415625,-0.014375
3.882,0.0415625,-0.014375
3.883,0.0409375,-0.0146875
3.884,0.0409375,-0.0146875
3.885,0.0403125,-0.015
3.886,0.04,-0.015
3.887,0.0396875,-0.015
3.888,0.0390625,-0.0153125
3.889,0.03875,-0.0153125
3.89,0.038125,-0.0153125
3.891,0.0378125,-0.0153125
3.892,0.0375,-0.0153125
3.893,0.0371875,-0.0153125
3.894,0.0365625,-0.015625
3.895,0.0365625,-0.015625
3.896,0.03625,-0.015625
3.897,0.0359375,-0.0159375
3.898,0.035625,-0.01625
3.899,0.0353125,-0.0165625
3.9,0.035,-0.016875
3.901,0.0346875,-0.0171875
3.902,0.034375,-0.0175
3.903,0.03375,-0.0178125
3.904,0.033125,-0.018125
3.905,0.0328125,-0.018125
3.906,0.0325,-0.01875
3.907,0.0315625,-0.01875
3.908,0.03125,-0.0190625
3.909,0.0309375,-0.0190625
3.91,0.03,-0.0190625
3.911,0.03,-0.019375
3.912,0.029375,-0.019375
3.913,0.0290625,-0.019375
3.914,0.02875,-0.019375
3.915,0.0284375,-0.019375
3.916,0.0284375,-0.0190625
3.917,0.028125,-0.0190625
3.918,0.0278125,-0.0190625
3.919,0.0278125,-0.0190625
3.92,0.0271875,-0.0190625
3.921,0.0271875,-0.0190625
3.922,0.026875,-0.0190625
3.923,0.0265625,-0.0190625
3.924,0.0259375,-0.0190625
3.925,0.0259375,-0.0190625
3.926,0.0253125,-0.0190625
3.927,0.025,-0.019375
3.928,0.025,-0.019375
3.929,0.024375,-0.0196875
3.93,0.0240625,-0.0196875
3.931,0.0240625,-0.0196875
3.932,0.02375,-0.02
3.933,0.02375,-0.02
3.934,0.02375,-0.0203125
3.935,0.0234375,-0.0203125
3.936,0.0234375,-0.020625
3.937,0.0234375,-0.020625
3.938,0.0234375,-0.0209375
3.939,0.0234375,-0.02125
3.94,0.0234375,-0.02125
3.941,0.0234375,-0.021875
3.942,0.023125,-0.021875
3.943,0.0228125,-0.0221875
3.944,0.0228125,-0.0225
3.945,0.0225,-0.0228125
3.946,0.0221875,-0.023125
3.947,0.021875,-0.0234375
3.948,0.0215625,-0.02375
3.949,0.02125,-0.0240625
3.95,0.0209375,-0.024375
3.951,0.020625,-0.0246875
3.952,0.0203125,-0.025
3.953,0.0203125,-0.025
3.954,0.02,-0.025625
3.955,0.0196875,-0.025625
3.956,0.019375,-0.0259375
3.957,0.019375,-0.02625
3.958,0.019375,-0.02625
3.959,0.01875,-0.0265625
3.96,0.0184375,-0.0265625
3.961,0.0184375,-0.026875
3.962,0.0178125,-0.0271875
3.963,0.0175,-0.0271875
3.964,0.0171875,-0.0275
3.965,0.0165625,-0.0278125
3.966,0.0159375,-0.028125
3.967,0.015625,-0.028125
3.968,0.015,-0.0284375
3.969,0.014375,-0.02875
3.97,0.0140625,-0.0290625
3.971,0.01375,-0.029375
3.972,0.013125,-0.029375
3.973,0.0128125,-0.0296875
3.974,0.0125,-0.03
3.975,0.0121875,-0.03
3.976,0.011875,-0.0303125
3.977,0.011875,-0.0303125
3.978,0.01125,-0.030625
3.979,0.01125,-0.030625
3.98,0.010625,-0.030625
3.981,0.010625,-0.030625
3.982,0.01,-0.030625
3.983,0.0096875,-0.030625
3.984,0.009375,-0.0303125
3.985,0.00875,-0.0303125
3.986,0.0084375,-0.0303125
3.987,0.008125,-0.03
3.988,0.0075,-0.03
3.989,0.0071875,-0.0296875
3.99,0.006875,-0.0296875
3.991,0.0065625,-0.0296875
3.992,0.00625,-0.029375
3.993,0.0059375,-0.029375
3.994,0.0059375,-0.0290625
3.995,0.005625,-0.0290625
3.996,0.005625,-0.0290625
3.997,0.005625,-0.02875
3.998,0.005625,-0.02875
3.999,0.005625,-0.0284375
4,0.005625,-0.0284375
4.001,0.005625,-0.0284375
4.002,0.0053125,-0.028125
4.003,0.0053125,-0.028125
4.004,0.0053125,-0.028125
4.005,0.005,-0.028125
4.006,0.005,-0.028125
4.007,0.0046875,-0.0284375
4.008,0.0046875,-0.0284375
4.009,0.004375,-0.0284375
4.01,0.004375,-0.02875
4.011,0.0040625,-0.0290625
4.012,0.0040625,-0.029375
4.013,0.0040625,-0.0296875
4.014,0.0040625,-0.03
4.015,0.0040625,-0.0303125
4.016,0.0040625,-0.030625
4.017,0.0040625,-0.0309375
4.018,0.004375,-0.03125
4.019,0.004375,-0.031875
4.02,0.004375,-0.0321875
4.021,0.004375,-0.0325
4.022,0.004375,-0.0328125
4.023,0.0040625,-0.033125
4.024,0.0040625,-0.0334375
4.025,0.0040625,-0.03375
4.026,0.00375,-0.03375
4.027,0.00375,-0.034375
4.028,0.00375,-0.034375
4.029,0.0034375,-0.0346875
4.03,0.0034375,-0.035
4.031,0.0034375,-0.035
4.032,0.0034375,-0.0353125
4.033,0.0034375,-0.0353125
4.034,0.00375,-0.035625
4.035,0.00375,-0.0359375
4.036,0.0040625,-0.0359375
4.037,0.004375,-0.03625
4.038,0.0046875,-0.03625
4.039,0.0046875,-0.0365625
4.04,0.005,-0.0365625
4.041,0.0053125,-0.0365625
4.042,0.005625,-0.036875
4.043,0.0059375,-0.036875
4.044,0.0059375,-0.036875
4.045,0.0065625,-0.036875
4.046,0.0065625,-0.036875
4.047,0.006875,-0.036875
4.048,0.0071875,-0.0371875
4.049,0.0075,-0.0371875
4.05,0.0078125,-0.0371875
4.051,0.008125,-0.0375
4.052,0.00875,-0.0378125
4.053,0.0090625,-0.0378125
4.054,0.009375,-0.038125
4.055,0.01,-0.0384375
4.056,0.0103125,-0.03875
4.057,0.0109375,-0.039375
4.058,0.01125,-0.0396875
4.059,0.0115625,-0.0403125
4.06,0.011875,-0.040625
4.061,0.0121875,-0.04125
4.062,0.0125,-0.0415625
4.063,0.0125,-0.0421875
4.064,0.0128125,-0.0425
4.065,0.0128125,-0.043125
4.066,0.0128125,-0.0434375
4.067,0.0128125,-0.0440625
4.068,0.0125,-0.044375
4.069,0.0125,-0.0446875
4.07,0.0125,-0.0453125
4.071,0.0125,-0.045625
4.072,0.0125,-0.0459375
4.073,0.0125,-0.0465625
4.074,0.0121875,-0.046875
4.075,0.0121875,-0.0471875
4.076,0.0121875,-0.0478125
4.077,0.011875,-0.048125
4.078,0.0115625,-0.0484375
4.079,0.0115625,-0.04875
4.08,0.01125,-0.049375
4.081,0.0109375,-0.0496875
4.082,0.0103125,-0.05
4.083,0.01,-0.0503125
4.084,0.009375,-0.050625
4.085,0.0090625,-0.050625
4.086,0.008125,-0.0509375
4.087,0.0075,-0.05125
4.088,0.0071875,-0.05125
4.089,0.006875,-0.05125
4.09,0.00625,-0.05125
4.091,0.005625,-0.05125
4.092,0.0053125,-0.05125
4.093,0.005,-0.05125
4.094,0.004375,-0.0509375
4.095,0.004375,-0.050625
4.096,0.0040625,-0.050625
4.097,0.00375,-0.0503125
4.098,0.00375,-0.0496875
4.099,0.0034375,-0.0496875
4.1,0.003125,-0.0490625
4.101,0.003125,-0.0490625
4.102,0.0028125,-0.0484375
4.103,0.0025,-0.048125
4.104,0.0025,-0.0478125
4.105,0.0021875,-0.0471875
4.106,0.001875,-0.046875
4.107,0.001875,-0.0465625
4.108,0.0015625,-0.0459375
4.109,0.00125,-0.045625
4.11,0.00125,-0.045
4.111,0.00125,-0.0446875
4.112,0.0009375,-0.0440625
4.113,0.0009375,-0.04375
4.114,0.0009375,-0.043125
4.115,0.0009375,-0.0428125
4.116,0.0009375,-0.0421875
4.117,0.000625,-0.041875
4.118,0.000625,-0.04125
4.119,0.000625,-0.0409375
4.12,0.0003125,-0.0403125
4.121,0.0003125,-0.04
4.122,0.0003125,-0.039375
4.123,0,-0.0390625
4.124,-0.0003125,-0.0384375
4.125,-0.000625,-0.038125
4.126,-0.000625,-0.0378125
4.127,-0.00125,-0.0375
4.128,-0.00125,-0.0371875
4.129,-0.0015625,-0.036875
4.13,-0.001875,-0.0365625
4.131,-0.001875,-0.03625
4.132,-0.001875,-0.03625
4.133,-0.001875,-0.0359375
4.134,-0.0021875,-0.0359375
4.135,-0.0021875,-0.0359375
4.136,-0.0021875,-0.0359375
4.137,-0.0021875,-0.0359375
4.138,-0.0021875,-0.0359375
4.139,-0.0025,-0.0359375
4.14,-0.0025,-0.0359375
4.141,-0.0025,-0.03625
4.142,-0.0028125,-0.03625
4.143,-0.003125,-0.03625
4.144,-0.003125,-0.03625
4.145,-0.00375,-0.03625
4.146,-0.00375,-0.0365625
4.147,-0.004375,-0.0365625
4.148,-0.0046875,-0.0365625
4.149,-0.005,-0.0365625
4.15,-0.0053125,-0.0365625
4.151,-0.005625,-0.0365625
4.152,-0.0059375,-0.0365625
4.153,-0.00625,-0.0365625
4.154,-0.0065625,-0.0365625
4.155,-0.0065625,-0.0365625
4.156,-0.0071875,-0.0365625
4.157,-0.0071875,-0.036875
4.158,-0.0078125,-0.036875
4.159,-0.008125,-0.0371875
4.16,-0.00875,-0.0371875
4.161,-0.0090625,-0.0371875
4.162,-0.009375,-0.0371875
4.163,-0.0103125,-0.0371875
4.164,-0.010625,-0.036875
4.165,-0.0115625,-0.036875
4.166,-0.0121875,-0.036875
4.167,-0.0128125,-0.0365625
4.168,-0.01375,-0.03625
4.169,-0.0140625,-0.0359375
4.17,-0.015,-0.035625
4.171,-0.0153125,-0.0353125
4.172,-0.015625,-0.035
4.173,-0.01625,-0.0346875
4.174,-0.01625,-0.0346875
4.175,-0.0165625,-0.0340625
4.176,-0.016875,-0.03375
4.177,-0.016875,-0.03375
4.178,-0.016875,-0.0334375
4.179,-0.016875,-0.033125
4.18,-0.016875,-0.033125
4.181,-0.016875,-0.0328125
4.182,-0.016875,-0.0325
4.183,-0.016875,-0.0321875
4.184,-0.016875,-0.031875
4.185,-0.016875,-0.0315625
4.186,-0.016875,-0.03125
4.187,-0.016875,-0.0309375
4.188,-0.016875,-0.0303125
4.189,-0.016875,-0.03
4.19,-0.0165625,-0.0296875
4.191,-0.0165625,-0.0290625
4.192,-0.0165625,-0.02875
4.193,-0.01625,-0.0284375
4.194,-0.01625,-0.028125
4.195,-0.015625,-0.0278125
4.196,-0.015625,-0.0275
4.197,-0.0153125,-0.0271875
4.198,-0.015,-0.0271875
4.199,-0.015,-0.0271875
4.2,-0.014375,-0.026875
4.201,-0.014375,-0.026875
4.202,-0.014375,-0.026875
4.203,-0.0140625,-0.026875
4.204,-0.0140625,-0.0265625
4.205,-0.01375,-0.0265625
4.206,-0.01375,-0.0265625
4.207,-0.01375,-0.02625
4.208,-0.01375,-0.02625
4.209,-0.01375,-0.0259375
4.21,-0.0134375,-0.0259375
4.211,-0.0134375,-0.025625
4.212,-0.0134375,-0.025625
4.213,-0.013125,-0.0253125
4.214,-0.0128125,-0.0253125
4.215,-0.0128125,-0.0253125
4.216,-0.0125,-0.025
4.217,-0.0121875,-0.025
4.218,-0.011875,-0.025
4.219,-0.0115625,-0.025
4.22,-0.01125,-0.025
4.221,-0.01125,-0.025
4.222,-0.010625,-0.025
4.223,-0.010625,-0.025
4.224,-0.010625,-0.025
4.225,-0.0103125,-0.025
4.226,-0.01,-0.0246875
4.227,-0.01,-0.0246875
4.228,-0.0096875,-0.0246875
4.229,-0.0096875,-0.024375
4.23,-0.009375,-0.024375
4.231,-0.0090625,-0.024375
4.232,-0.0090625,-0.0240625
4.233,-0.0084375,-0.02375
4.234,-0.008125,-0.02375
4.235,-0.0078125,-0.0234375
4.236,-0.0075,-0.023125
4.237,-0.0071875,-0.023125
4.238,-0.0065625,-0.0228125
4.239,-0.00625,-0.0228125
4.24,-0.00625,-0.0225
4.241,-0.0059375,-0.0225
4.242,-0.005625,-0.0225
4.243,-0.005625,-0.0225
4.244,-0.0053125,-0.0225
4.245,-0.0053125,-0.0225
4.246,-0.0053125,-0.0225
4.247,-0.0053125,-0.0225
4.248,-0.005625,-0.0225
4.249,-0.005625,-0.0225
4.25,-0.005625,-0.0225
4.251,-0.005625,-0.0225
4.252,-0.0053125,-0.0225
4.253,-0.0053125,-0.0225
4.254,-0.0053125,-0.0225
4.255,-0.005,-0.0225
4.256,-0.0046875,-0.0225
4.257,-0.0046875,-0.0225
4.258,-0.0046875,-0.0225
4.259,-0.004375,-0.0225
4.26,-0.0040625,-0.0228125
4.261,-0.0040625,-0.0228125
4.262,-0.0040625,-0.0228125
4.263,-0.0040625,-0.023125
4.264,-0.0040625,-0.023125
4.265,-0.0040625,-0.0234375
4.266,-0.004375,-0.02375
4.267,-0.0046875,-0.02375
4.268,-0.0046875,-0.02375
4.269,-0.005,-0.0240625
4.27,-0.005625,-0.0240625
4.271,-0.005625,-0.0240625
4.272,-0.0059375,-0.0240625
4.273,-0.00625,-0.0240625
4.274,-0.0065625,-0.02375
4.275,-0.0065625,-0.0234375
4.276,-0.0065625,-0.0234375
4.277,-0.006875,-0.0228125
4.278,-0.0071875,-0.0225
4.279,-0.0071875,-0.0221875
4.28,-0.0075,-0.0215625
4.281,-0.0078125,-0.02125
4.282,-0.0078125,-0.0209375
4.283,-0.0084375,-0.02
4.284,-0.0084375,-0.0196875
4.285,-0.0090625,-0.019375
4.286,-0.009375,-0.0184375
4.287,-0.0096875,-0.018125
4.288,-0.0103125,-0.0175
4.289,-0.010625,-0.016875
4.29,-0.0109375,-0.0165625
4.291,-0.0115625,-0.01625
4.292,-0.0115625,-0.015625
4.293,-0.011875,-0.015
4.294,-0.0125,-0.0146875
4.295,-0.0125,-0.0140625
4.296,-0.0128125,-0.01375
4.297,-0.013125,-0.0134375
4.298,-0.013125,-0.013125
4.299,-0.0134375,-0.0128125
4.3,-0.0134375,-0.0125
4.301,-0.01375,-0.0121875
4.302,-0.0140625,-0.0121875
4.303,-0.0140625,-0.0121875
4.304,-0.014375,-0.011875
4.305,-0.0146875,-0.011875
4.306,-0.015,-0.011875
4.307,-0.015625,-0.011875
4.308,-0.0159375,-0.0115625
4.309,-0.0165625,-0.0115625
4.31,-0.016875,-0.0115625
4.311,-0.0175,-0.0115625
4.312,-0.0178125,-0.0115625
4.313,-0.018125,-0.0115625
4.314,-0.01875,-0.0115625
4.315,-0.0190625,-0.0115625
4.316,-0.0196875,-0.0115625
4.317,-0.02,-0.01125
4.318,-0.0203125,-0.01125
4.319,-0.020625,-0.01125
4.32,-0.0209375,-0.0109375
4.321,-0.02125,-0.0109375
4.322,-0.0215625,-0.010625
4.323,-0.021875,-0.0103125
4.324,-0.021875,-0.0103125
4.325,-0.0225,-0.0096875
4.326,-0.0225,-0.0096875
4.327,-0.0225,-0.0090625
4.328,-0.0228125,-0.00875
4.329,-0.0228125,-0.0084375
4.33,-0.0228125,-0.0078125
4.331,-0.0228125,-0.0075
4.332,-0.0228125,-0.006875
4.333,-0.0228125,-0.0065625
4.334,-0.0225,-0.00625
4.335,-0.0225,-0.005625
4.336,-0.0221875,-0.0053125
4.337,-0.021875,-0.0046875
4.338,-0.021875,-0.004375
4.339,-0.0215625,-0.00375
4.34,-0.02125,-0.0034375
4.341,-0.02125,-0.003125
4.342,-0.0209375,-0.0028125
4.343,-0.020625,-0.0025
4.344,-0.020625,-0.0021875
4.345,-0.0203125,-0.001875
4.346,-0.02,-0.0015625
4.347,-0.02,-0.00125
4.348,-0.0196875,-0.00125
4.349,-0.0196875,-0.0009375
4.35,-0.019375,-0.000625
4.351,-0.0190625,-0.0003125
4.352,-0.01875,-0.0003125
4.353,-0.0184375,0
4.354,-0.0184375,0
4.355,-0.018125,0
4.356,-0.018125,0.0003125
4.357,-0.018125,0.0003125
4.358,-0.018125,0.000625
4.359,-0.018125,0.0009375
4.36,-0.018125,0.00125
4.361,-0.0184375,0.00125
4.362,-0.0190625,0.0015625
4.363,-0.019375,0.001875
4.364,-0.0203125,0.001875
4.365,-0.020625,0.0025
4.366,-0.0215625,0.0025
4.367,-0.0221875,0.0028125
4.368,-0.023125,0.0028125
4.369,-0.0240625,0.0028125
4.37,-0.0246875,0.003125
4.371,-0.025625,0.003125
4.372,-0.0265625,0.003125
4.373,-0.0271875,0.003125
4.374,-0.028125,0.003125
4.375,-0.0290625,0.0028125
4.376,-0.03,0.0028125
4.377,-0.0309375,0.0028125
4.378,-0.0321875,0.0028125
4.379,-0.0334375,0.0025
4.38,-0.0346875,0.0025
4.381,-0.0359375,0.0025
4.382,-0.0375,0.0021875
4.383,-0.0390625,0.0021875
4.384,-0.040625,0.0021875
4.385,-0.0425,0.001875
4.386,-0.0440625,0.0015625
4.387,-0.0459375,0.0015625
4.388,-0.048125,0.00125
4.389,-0.0503125,0.0009375
4.39,-0.0521875,0.0003125
4.391,-0.05375,0
4.392,-0.0553125,-0.0003125
4.393,-0.0575,-0.00125
4.394,-0.0590625,-0.001875
4.395,-0.060625,-0.0025
4.396,-0.0621875,-0.0028125
4.397,-0.0640625,-0.00375
4.398,-0.065625,-0.0040625
4.399,-0.066875,-0.004375
4.4,-0.06875,-0.005
4.401,-0.0703125,-0.005625
4.402,-0.0715625,-0.0059375
4.403,-0.073125,-0.00625
4.404,-0.0746875,-0.0065625
4.405,-0.07625,-0.006875
4.406,-0.0778125,-0.0071875
4.407,-0.079375,-0.0071875
4.408,-0.0809375,-0.0071875
4.409,-0.0825,-0.0075
4.41,-0.08375,-0.0075
4.411,-0.085,-0.0071875
4.412,-0.08625,-0.0071875
4.413,-0.0875,-0.0071875
4.414,-0.08875,-0.006875
4.415,-0.09,-0.006875
4.416,-0.0909375,-0.0065625
4.417,-0.0921875,-0.00625
4.418,-0.093125,-0.005625
4.419,-0.0940625,-0.0053125
4.42,-0.0953125,-0.005
4.421,-0.0959375,-0.0040625
4.422,-0.0971875,-0.0034375
4.423,-0.098125,-0.003125
4.424,-0.0990625,-0.0021875
4.425,-0.1,-0.001875
4.426,-0.1009375,-0.0009375
4.427,-0.101875,-0.000625
4.428,-0.1025,0.0003125
4.429,-0.1034375,0.000625
4.43,-0.1040625,0.0015625
4.431,-0.104375,0.001875
4.432,-0.105,0.0025
4.433,-0.1053125,0.0028125
4.434,-0.105625,0.003125
4.435,-0.1059375,0.00375
4.436,-0.1059375,0.00375
4.437,-0.1059375,0.0040625
4.438,-0.1059375,0.0040625
4.439,-0.1059375,0.0040625
4.44,-0.1059375,0.0040625
4.441,-0.1059375,0.0040625
4.442,-0.105625,0.0040625
4.443,-0.1053125,0.0040625
4.444,-0.1053125,0.00375
4.445,-0.1046875,0.00375
4.446,-0.104375,0.0034375
4.447,-0.1040625,0.003125
4.448,-0.1034375,0.003125
4.449,-0.1028125,0.0025
4.45,-0.1021875,0.0025
4.451,-0.10125,0.0021875
4.452,-0.100625,0.001875
4.453,-0.0996875,0.001875
4.454,-0.09875,0.0015625
4.455,-0.0978125,0.0015625
4.456,-0.096875,0.0015625
4.457,-0.095625,0.0015625
4.458,-0.0946875,0.0015625
4.459,-0.09375,0.0015625
4.46,-0.0928125,0.0015625
4.461,-0.091875,0.0015625
4.462,-0.0909375,0.001875
4.463,-0.0903125,0.0021875
4.464,-0.0890625,0.0021875
4.465,-0.08875,0.0025
4.466,-0.0878125,0.0028125
4.467,-0.086875,0.003125
4.468,-0.0865625,0.0034375
4.469,-0.085625,0.00375
4.47,-0.0853125,0.0040625
4.471,-0.084375,0.004375
4.472,-0.08375,0.0046875
4.473,-0.0834375,0.0053125
4.474,-0.0825,0.005625
4.475,-0.0821875,0.0059375
4.476,-0.08125,0.00625
4.477,-0.0809375,0.006875
4.478,-0.080625,0.0071875
4.479,-0.08,0.0075
4.48,-0.079375,0.0078125
4.481,-0.0790625,0.0084375
4.482,-0.07875,0.0084375
4.483,-0.078125,0.0090625
4.484,-0.0778125,0.009375
4.485,-0.0778125,0.0096875
4.486,-0.0775,0.01
4.487,-0.0775,0.01
4.488,-0.0771875,0.010625
4.489,-0.076875,0.010625
4.49,-0.076875,0.010625
4.491,-0.076875,0.0109375
4.492,-0.0765625,0.0109375
4.493,-0.07625,0.01125
4.494,-0.07625,0.01125
4.495,-0.0759375,0.01125
4.496,-0.075625,0.01125
4.497,-0.075625,0.01125
4.498,-0.0753125,0.01125
4.499,-0.075,0.0115625
4.5,-0.0746875,0.0115625
4.501,-0.0746875,0.0115625
4.502,-0.074375,0.0115625
4.503,-0.0740625,0.011875
4.504,-0.0740625,0.011875
4.505,-0.0740625,0.011875
4.506,-0.07375,0.0121875
4.507,-0.07375,0.0125
4.508,-0.0734375,0.0125
4.509,-0.0734375,0.0128125
4.51,-0.0734375,0.013125
4.511,-0.073125,0.013125
4.512,-0.073125,0.0134375
4.513,-0.073125,0.01375
4.514,-0.0728125,0.01375
4.515,-0.0725,0.0140625
4.516,-0.0721875,0.0140625
4.517,-0.0721875,0.014375
4.518,-0.071875,0.0146875
4.519,-0.0715625,0.0146875
4.52,-0.0715625,0.015
4.521,-0.0709375,0.0153125
4.522,-0.070625,0.0153125
4.523,-0.070625,0.0153125
4.524,-0.0703125,0.015625
4.525,-0.07,0.015625
4.526,-0.0696875,0.015625
4.527,-0.069375,0.015625
4.528,-0.0690625,0.015625
4.529,-0.06875,0.015625
4.53,-0.0684375,0.015625
4.531,-0.068125,0.0153125
4.532,-0.0675,0.0153125
4.533,-0.0671875,0.0153125
4.534,-0.0665625,0.015
4.535,-0.06625,0.0146875
4.536,-0.065625,0.014375
4.537,-0.0653125,0.0140625
4.538,-0.065,0.01375
4.539,-0.064375,0.0134375
4.54,-0.0640625,0.0134375
4.541,-0.06375,0.0128125
4.542,-0.063125,0.0125
4.543,-0.063125,0.0121875
4.544,-0.0625,0.011875
4.545,-0.0625,0.0115625
4.546,-0.061875,0.01125
4.547,-0.061875,0.010625
4.548,-0.0615625,0.0103125
4.549,-0.06125,0.01
4.55,-0.060625,0.0096875
4.551,-0.060625,0.0090625
4.552,-0.06,0.00875
4.553,-0.06,0.0084375
4.554,-0.059375,0.0078125
4.555,-0.059375,0.0075
4.556,-0.05875,0.0071875
4.557,-0.05875,0.0071875
4.558,-0.0584375,0.006875
4.559,-0.058125,0.006875
4.56,-0.058125,0.0065625
4.561,-0.0578125,0.0065625
4.562,-0.0578125,0.006875
4.563,-0.0578125,0.006875
4.564,-0.0575,0.006875
4.565,-0.0575,0.006875
4.566,-0.0575,0.0071875
4.567,-0.0575,0.0071875
4.568,-0.0571875,0.0075
4.569,-0.056875,0.0078125
4.57,-0.0565625,0.0078125
4.571,-0.05625,0.008125
4.572,-0.0559375,0.008125
4.573,-0.0553125,0.0084375
4.574,-0.055,0.0084375
4.575,-0.054375,0.0084375
4.576,-0.0540625,0.00875
4.577,-0.0534375,0.00875
4.578,-0.0528125,0.00875
4.579,-0.0525,0.00875
4.58,-0.051875,0.00875
4.581,-0.0515625,0.0084375
4.582,-0.05125,0.0084375
4.583,-0.050625,0.0084375
4.584,-0.0503125,0.008125
4.585,-0.05,0.008125
4.586,-0.0496875,0.008125
4.587,-0.0490625,0.0078125
4.588,-0.04875,0.0078125
4.589,-0.048125,0.0075
4.59,-0.0478125,0.0071875
4.591,-0.0471875,0.0071875
4.592,-0.046875,0.006875
4.593,-0.0459375,0.0065625
4.594,-0.045625,0.0065625
4.595,-0.045,0.0065625
4.596,-0.0440625,0.00625
4.597,-0.04375,0.0059375
4.598,-0.0434375,0.0059375
4.599,-0.0428125,0.005625
4.6,-0.0425,0.0053125
4.601,-0.0421875,0.0053125
4.602,-0.041875,0.005
4.603,-0.041875,0.0046875
4.604,-0.0415625,0.0046875
4.605,-0.04125,0.0040625
4.606,-0.04125,0.0040625
4.607,-0.04125,0.00375
4.608,-0.0409375,0.0034375
4.609,-0.0409375,0.0034375
4.61,-0.0409375,0.003125
4.611,-0.040625,0.0028125
4.612,-0.040625,0.0025
4.613,-0.040625,0.0025
4.614,-0.0403125,0.0025
4.615,-0.0403125,0.0021875
4.616,-0.0403125,0.0021875
4.617,-0.0403125,0.0021875
4.618,-0.0403125,0.0021875
4.619,-0.0403125,0.0021875
4.62,-0.0403125,0.0021875
4.621,-0.040625,0.0021875
4.622,-0.040625,0.0025
4.623,-0.040625,0.0025
