Interval=,0.001 s,
ExcelDateTime=,4.54E+04,41:18.8
TimeFormat=,StartOfBlock,
DateFormat=,,
ChannelTitle=,Channel 3,Channel 4
Range=,10.000 mV,10.000 mV
0,0,0
0.001,0,0
0.002,-0.0003125,-0.0003125
0.003,-0.0003125,-0.0003125
0.004,-0.0003125,-0.0003125
0.005,-0.0009375,-0.0003125
0.006,-0.0021875,-0.0003125
0.007,-0.004375,-0.000625
0.008,-0.0078125,-0.00125
0.009,-0.0125,-0.0015625
0.01,-0.019375,-0.0021875
0.011,-0.0284375,-0.003125
0.012,-0.0403125,-0.0040625
0.013,-0.055,-0.0053125
0.014,-0.073125,-0.0071875
0.015,-0.0946875,-0.00875
0.016,-0.1196875,-0.01125
0.017,-0.14875,-0.01375
0.018,-0.1809375,-0.0165625
0.019,-0.216875,-0.0196875
0.02,-0.2559375,-0.0234375
0.021,-0.2978125,-0.0275
0.022,-0.3425,-0.0315625
0.023,-0.389375,-0.0365625
0.024,-0.43875,-0.0415625
0.025,-0.489375,-0.0465625
0.026,-0.5421875,-0.0525
0.027,-0.59625,-0.058125
0.028,-0.6521875,-0.064375
0.029,-0.71,-0.0709375
0.03,-0.769375,-0.0775
0.031,-0.830625,-0.0846875
0.032,-0.89375,-0.0915625
0.033,-0.959375,-0.0990625
0.034,-1.026875,-0.106875
0.035,-1.096875,-0.1146875
0.036,-1.16875,-0.1225
0.037,-1.241875,-0.130625
0.038,-1.31625,-0.1390625
0.039,-1.390937,-0.146875
0.04,-1.465313,-0.1553125
0.041,-1.539375,-0.16375
0.042,-1.611563,-0.1715625
0.043,-1.68125,-0.179375
0.044,-1.748438,-0.1875
0.045,-1.811875,-0.195
0.046,-1.871563,-0.2021875
0.047,-1.927188,-0.2090625
0.048,-1.97875,-0.215625
0.049,-2.02625,-0.2221875
0.05,-2.070313,-0.228125
0.051,-2.110937,-0.2334375
0.052,-2.14875,-0.23875
0.053,-2.184063,-0.24375
0.054,-2.2175,-0.2484375
0.055,-2.249375,-0.2525
0.056,-2.280313,-0.25625
0.057,-2.31,-0.26
0.058,-2.33875,-0.263125
0.059,-2.36625,-0.26625
0.06,-2.3925,-0.2690625
0.061,-2.416875,-0.2715625
0.062,-2.439062,-0.2734375
0.063,-2.459062,-0.275625
0.064,-2.47625,-0.2771875
0.065,-2.490625,-0.2784375
0.066,-2.501875,-0.279375
0.067,-2.509688,-0.2803125
0.068,-2.515,-0.280625
0.069,-2.5175,-0.28125
0.07,-2.517813,-0.28125
0.071,-2.516875,-0.2809375
0.072,-2.514375,-0.280625
0.073,-2.511875,-0.2803125
0.074,-2.509063,-0.2796875
0.075,-2.507188,-0.27875
0.076,-2.505937,-0.2778125
0.077,-2.505937,-0.2771875
0.078,-2.506875,-0.2759375
0.079,-2.50875,-0.2746875
0.08,-2.511563,-0.2734375
0.081,-2.514375,-0.2721875
0.082,-2.5175,-0.2709375
0.083,-2.52,-0.2690625
0.084,-2.52125,-0.2675
0.085,-2.521562,-0.2659375
0.086,-2.520313,-0.26375
0.087,-2.5175,-0.2615625
0.088,-2.513438,-0.2596875
0.089,-2.507813,-0.2571875
0.09,-2.501562,-0.2546875
0.091,-2.495,-0.2521875
0.092,-2.488125,-0.2496875
0.093,-2.481562,-0.2471875
0.094,-2.475938,-0.244375
0.095,-2.471875,-0.241875
0.096,-2.469688,-0.2390625
0.097,-2.469063,-0.23625
0.098,-2.47,-0.23375
0.099,-2.472812,-0.2309375
0.1,-2.476563,-0.2284375
0.101,-2.481562,-0.2259375
0.102,-2.487188,-0.2234375
0.103,-2.492188,-0.220625
0.104,-2.497187,-0.2184375
0.105,-2.50125,-0.2159375
0.106,-2.504062,-0.2134375
0.107,-2.505625,-0.2109375
0.108,-2.505937,-0.2084375
0.109,-2.505313,-0.20625
0.11,-2.504062,-0.20375
0.111,-2.5025,-0.20125
0.112,-2.500625,-0.199375
0.113,-2.499375,-0.1971875
0.114,-2.499375,-0.195
0.115,-2.500625,-0.1934375
0.116,-2.50375,-0.19125
0.117,-2.508125,-0.1896875
0.118,-2.514063,-0.1884375
0.119,-2.521562,-0.186875
0.12,-2.530313,-0.185625
0.121,-2.539375,-0.1846875
0.122,-2.549063,-0.18375
0.123,-2.557813,-0.1828125
0.124,-2.565938,-0.1821875
0.125,-2.572812,-0.18125
0.126,-2.578125,-0.180625
0.127,-2.581875,-0.1803125
0.128,-2.58375,-0.1796875
0.129,-2.584375,-0.179375
0.13,-2.584062,-0.17875
0.131,-2.582813,-0.1784375
0.132,-2.58125,-0.178125
0.133,-2.58,-0.1778125
0.134,-2.579687,-0.1778125
0.135,-2.580313,-0.1775
0.136,-2.582187,-0.1775
0.137,-2.585938,-0.1778125
0.138,-2.590937,-0.1778125
0.139,-2.597188,-0.178125
0.14,-2.604688,-0.17875
0.141,-2.612813,-0.1790625
0.142,-2.62125,-0.1796875
0.143,-2.62875,-0.18
0.144,-2.635625,-0.1803125
0.145,-2.64125,-0.18125
0.146,-2.645625,-0.1815625
0.147,-2.648125,-0.1821875
0.148,-2.64875,-0.1825
0.149,-2.648438,-0.1828125
0.15,-2.646875,-0.1834375
0.151,-2.644375,-0.1834375
0.152,-2.641563,-0.1840625
0.153,-2.639063,-0.1840625
0.154,-2.636875,-0.184375
0.155,-2.635938,-0.185
0.156,-2.63625,-0.185
0.157,-2.638125,-0.1853125
0.158,-2.640938,-0.185625
0.159,-2.644687,-0.1859375
0.16,-2.649688,-0.18625
0.161,-2.654688,-0.18625
0.162,-2.659375,-0.186875
0.163,-2.663438,-0.186875
0.164,-2.66625,-0.186875
0.165,-2.6675,-0.1871875
0.166,-2.666875,-0.186875
0.167,-2.664687,-0.186875
0.168,-2.660312,-0.186875
0.169,-2.654375,-0.18625
0.17,-2.647188,-0.18625
0.171,-2.639375,-0.185625
0.172,-2.630937,-0.1853125
0.173,-2.623125,-0.1846875
0.174,-2.615938,-0.1840625
0.175,-2.61,-0.18375
0.176,-2.605625,-0.1834375
0.177,-2.603125,-0.1828125
0.178,-2.602187,-0.1821875
0.179,-2.6025,-0.1815625
0.18,-2.604062,-0.18125
0.181,-2.606562,-0.1809375
0.182,-2.609375,-0.1803125
0.183,-2.611875,-0.18
0.184,-2.61375,-0.1790625
0.185,-2.614375,-0.178125
0.186,-2.614063,-0.1778125
0.187,-2.611875,-0.1765625
0.188,-2.608438,-0.175625
0.189,-2.60375,-0.1746875
0.19,-2.598438,-0.1734375
0.191,-2.5925,-0.1721875
0.192,-2.586562,-0.170625
0.193,-2.580625,-0.169375
0.194,-2.57625,-0.1678125
0.195,-2.572812,-0.1659375
0.196,-2.570937,-0.164375
0.197,-2.570937,-0.163125
0.198,-2.572188,-0.16125
0.199,-2.575,-0.1596875
0.2,-2.57875,-0.1578125
0.201,-2.582813,-0.15625
0.202,-2.587188,-0.154375
0.203,-2.590937,-0.1525
0.204,-2.593437,-0.1503125
0.205,-2.594375,-0.148125
0.206,-2.59375,-0.145625
0.207,-2.591563,-0.143125
0.208,-2.587813,-0.140625
0.209,-2.5825,-0.1375
0.21,-2.575938,-0.134375
0.211,-2.56875,-0.1309375
0.212,-2.561875,-0.1275
0.213,-2.555,-0.12375
0.214,-2.549375,-0.1196875
0.215,-2.545,-0.115625
0.216,-2.542813,-0.1115625
0.217,-2.542188,-0.106875
0.218,-2.543438,-0.1025
0.219,-2.546562,-0.0978125
0.22,-2.550625,-0.0928125
0.221,-2.555938,-0.0878125
0.222,-2.56125,-0.0821875
0.223,-2.566562,-0.0765625
0.224,-2.570937,-0.0709375
0.225,-2.574375,-0.0646875
0.226,-2.576563,-0.0584375
0.227,-2.577188,-0.0515625
0.228,-2.57625,-0.0446875
0.229,-2.574063,-0.0371875
0.23,-2.570625,-0.0296875
0.231,-2.566562,-0.02125
0.232,-2.562187,-0.013125
0.233,-2.558125,-0.004375
0.234,-2.554688,0.004375
0.235,-2.5525,0.01375
0.236,-2.55125,0.023125
0.237,-2.551563,0.0328125
0.238,-2.552812,0.0425
0.239,-2.555312,0.0525
0.24,-2.558125,0.063125
0.241,-2.561563,0.073125
0.242,-2.564375,0.08375
0.243,-2.56625,0.094375
0.244,-2.566875,0.1053125
0.245,-2.565625,0.11625
0.246,-2.562187,0.1275
0.247,-2.556563,0.13875
0.248,-2.54875,0.15
0.249,-2.539063,0.1615625
0.25,-2.527813,0.173125
0.251,-2.515,0.1846875
0.252,-2.501562,0.1959375
0.253,-2.487813,0.2075
0.254,-2.474063,0.21875
0.255,-2.46125,0.23
0.256,-2.449063,0.24125
0.257,-2.438125,0.251875
0.258,-2.428438,0.2628125
0.259,-2.419688,0.273125
0.26,-2.411563,0.283125
0.261,-2.40375,0.2928125
0.262,-2.39625,0.3025
0.263,-2.387812,0.3115625
0.264,-2.378438,0.320625
0.265,-2.368125,0.3290625
0.266,-2.355938,0.3375
0.267,-2.3425,0.345
0.268,-2.326875,0.3521875
0.269,-2.31,0.359375
0.27,-2.292188,0.3659375
0.271,-2.273125,0.371875
0.272,-2.253438,0.3775
0.273,-2.234062,0.3825
0.274,-2.215313,0.3871875
0.275,-2.1975,0.3909375
0.276,-2.180625,0.3940625
0.277,-2.165313,0.396875
0.278,-2.151563,0.3990625
0.279,-2.139063,0.4003125
0.28,-2.127813,0.40125
0.281,-2.117812,0.40125
0.282,-2.108438,0.4009375
0.283,-2.099375,0.3996875
0.284,-2.090313,0.398125
0.285,-2.080313,0.395625
0.286,-2.070313,0.3928125
0.287,-2.059063,0.389375
Interval=,0.001 s,
ExcelDateTime=,4.54E+04,41:20.6
TimeFormat=,StartOfBlock,
DateFormat=,,
ChannelTitle=,Channel 3,Channel 4
Range=,10.000 mV,10.000 mV
0,0,0
0.001,-0.0003125,0
0.002,-0.0003125,0
0.003,-0.000625,0
0.004,-0.001875,-0.0003125
0.005,-0.004375,-0.0003125
0.006,-0.0084375,-0.0003125
0.007,-0.0146875,-0.000625
0.008,-0.0240625,-0.0009375
0.009,-0.036875,-0.0015625
0.01,-0.0540625,-0.0025
0.011,-0.07625,-0.00375
0.012,-0.10375,-0.0053125
0.013,-0.136875,-0.006875
0.014,-0.175625,-0.009375
0.015,-0.2196875,-0.011875
0.016,-0.2684375,-0.0146875
0.017,-0.3215625,-0.018125
0.018,-0.3775,-0.0215625
0.019,-0.435625,-0.025625
0.02,-0.494375,-0.029375
0.021,-0.5525,-0.0334375
0.022,-0.6084375,-0.0371875
0.023,-0.661875,-0.0409375
0.024,-0.711875,-0.0446875
0.025,-0.758125,-0.0484375
0.026,-0.8003125,-0.0515625
0.027,-0.83875,-0.054375
0.028,-0.874375,-0.0575
0.029,-0.9071875,-0.0603125
0.03,-0.9384375,-0.0628125
0.031,-0.969375,-0.065625
0.032,-1,-0.068125
0.033,-1.031875,-0.070625
0.034,-1.064688,-0.07375
0.035,-1.098438,-0.07625
0.036,-1.1325,-0.079375
0.037,-1.16625,-0.0828125
0.038,-1.198438,-0.085625
0.039,-1.227188,-0.0884375
0.04,-1.25125,-0.0915625
0.041,-1.269063,-0.0940625
0.042,-1.278438,-0.0959375
0.043,-1.27875,-0.0978125
0.044,-1.26875,-0.09875
0.045,-1.24875,-0.0990625
0.046,-1.21875,-0.0990625
0.047,-1.179688,-0.098125
0.048,-1.132813,-0.096875
0.049,-1.08,-0.095
0.05,-1.023438,-0.0928125
0.051,-0.965625,-0.090625
0.052,-0.9084375,-0.088125
0.053,-0.854375,-0.085625
0.054,-0.804375,-0.0834375
0.055,-0.7603125,-0.08125
0.056,-0.7221875,-0.079375
0.057,-0.69,-0.078125
0.058,-0.663125,-0.0771875
0.059,-0.6396875,-0.07625
0.06,-0.6190625,-0.0759375
0.061,-0.5990625,-0.075
0.062,-0.5775,-0.074375
0.063,-0.5534375,-0.0740625
0.064,-0.5253125,-0.0728125
0.065,-0.4921875,-0.0715625
0.066,-0.4546875,-0.07
0.067,-0.4121875,-0.068125
0.068,-0.3665625,-0.0659375
0.069,-0.31875,-0.0634375
0.07,-0.270625,-0.060625
0.071,-0.2240625,-0.0578125
0.072,-0.1809375,-0.0553125
0.073,-0.143125,-0.0528125
0.074,-0.1121875,-0.050625
0.075,-0.08875,-0.04875
0.076,-0.0728125,-0.0475
0.077,-0.0640625,-0.0465625
0.078,-0.0615625,-0.0459375
0.079,-0.064375,-0.0459375
0.08,-0.07,-0.0459375
0.081,-0.076875,-0.04625
0.082,-0.0828125,-0.0465625
0.083,-0.08625,-0.046875
0.084,-0.0859375,-0.046875
0.085,-0.080625,-0.046875
0.086,-0.07,-0.0465625
0.087,-0.0546875,-0.045625
0.088,-0.035625,-0.0446875
0.089,-0.01375,-0.0434375
0.09,0.0090625,-0.041875
0.091,0.03125,-0.040625
0.092,0.050625,-0.039375
0.093,0.0653125,-0.038125
0.094,0.0740625,-0.0371875
0.095,0.0765625,-0.036875
0.096,0.071875,-0.036875
0.097,0.0609375,-0.0371875
0.098,0.0446875,-0.0378125
0.099,0.02375,-0.0390625
0.1,0.000625,-0.0403125
0.101,-0.0225,-0.0415625
0.102,-0.044375,-0.0428125
0.103,-0.0628125,-0.0440625
0.104,-0.0765625,-0.045
0.105,-0.0846875,-0.0459375
0.106,-0.086875,-0.04625
0.107,-0.0834375,-0.04625
0.108,-0.075,-0.0459375
0.109,-0.0634375,-0.0453125
0.11,-0.0496875,-0.044375
0.111,-0.03625,-0.0434375
0.112,-0.024375,-0.0425
0.113,-0.0165625,-0.0415625
0.114,-0.0134375,-0.04125
0.115,-0.01625,-0.0409375
0.116,-0.025,-0.0409375
0.117,-0.0396875,-0.0415625
0.118,-0.0590625,-0.0421875
0.119,-0.081875,-0.0434375
0.12,-0.1065625,-0.0446875
0.121,-0.1309375,-0.04625
0.122,-0.1534375,-0.0475
0.123,-0.171875,-0.04875
0.124,-0.1853125,-0.0496875
0.125,-0.1928125,-0.0503125
0.126,-0.1940625,-0.0509375
0.127,-0.189375,-0.0509375
0.128,-0.1796875,-0.0503125
0.129,-0.1659375,-0.0496875
0.13,-0.1503125,-0.0490625
0.131,-0.134375,-0.048125
0.132,-0.1203125,-0.0471875
0.133,-0.1096875,-0.04625
0.134,-0.10375,-0.0459375
0.135,-0.1040625,-0.0459375
0.136,-0.11,-0.0459375
0.137,-0.1215625,-0.04625
0.138,-0.138125,-0.0471875
0.139,-0.1584375,-0.0484375
0.14,-0.180625,-0.0496875
0.141,-0.2025,-0.0509375
0.142,-0.2228125,-0.0521875
0.143,-0.239375,-0.0534375
0.144,-0.2509375,-0.0546875
0.145,-0.2565625,-0.055
0.146,-0.2559375,-0.0553125
0.147,-0.2496875,-0.0553125
0.148,-0.2384375,-0.055
0.149,-0.223125,-0.0540625
0.15,-0.2059375,-0.0534375
0.151,-0.1884375,-0.0521875
0.152,-0.1728125,-0.05125
0.153,-0.160625,-0.0503125
0.154,-0.1534375,-0.049375
0.155,-0.151875,-0.0490625
0.156,-0.15625,-0.04875
0.157,-0.16625,-0.0490625
0.158,-0.1809375,-0.049375
0.159,-0.199375,-0.0503125
0.16,-0.219375,-0.0509375
0.161,-0.239375,-0.0521875
0.162,-0.2571875,-0.0528125
0.163,-0.27125,-0.05375
0.164,-0.2803125,-0.0540625
0.165,-0.283125,-0.054375
0.166,-0.2796875,-0.054375
0.167,-0.2703125,-0.05375
0.168,-0.2559375,-0.0528125
0.169,-0.2375,-0.051875
0.17,-0.2171875,-0.050625
0.171,-0.1965625,-0.049375
0.172,-0.1775,-0.048125
0.173,-0.161875,-0.046875
0.174,-0.15125,-0.0459375
0.175,-0.1465625,-0.045
0.176,-0.1478125,-0.045
0.177,-0.1546875,-0.045
0.178,-0.166875,-0.0453125
0.179,-0.1825,-0.04625
0.18,-0.2003125,-0.046875
0.181,-0.218125,-0.048125
0.182,-0.234375,-0.04875
0.183,-0.246875,-0.05
0.184,-0.2546875,-0.0503125
0.185,-0.2565625,-0.0509375
0.186,-0.2521875,-0.0509375
0.187,-0.241875,-0.050625
0.188,-0.226875,-0.05
0.189,-0.2078125,-0.049375
0.19,-0.186875,-0.048125
0.191,-0.165625,-0.0471875
0.192,-0.1459375,-0.04625
0.193,-0.13,-0.045
0.194,-0.11875,-0.044375
0.195,-0.113125,-0.0440625
0.196,-0.1140625,-0.04375
0.197,-0.120625,-0.0440625
0.198,-0.1321875,-0.0446875
0.199,-0.1475,-0.045625
0.2,-0.1646875,-0.0465625
0.201,-0.1825,-0.0478125
0.202,-0.1984375,-0.04875
0.203,-0.2109375,-0.0496875
0.204,-0.218125,-0.050625
0.205,-0.22,-0.0509375
0.206,-0.2159375,-0.05125
0.207,-0.205625,-0.0509375
0.208,-0.1903125,-0.0503125
0.209,-0.17125,-0.0496875
0.21,-0.15,-0.0484375
0.211,-0.12875,-0.0478125
0.212,-0.10875,-0.0465625
0.213,-0.0925,-0.045625
0.214,-0.080625,-0.045
0.215,-0.0746875,-0.044375
0.216,-0.0746875,-0.044375
0.217,-0.0803125,-0.0446875
0.218,-0.090625,-0.0453125
0.219,-0.1046875,-0.04625
0.22,-0.120625,-0.0471875
0.221,-0.1365625,-0.0484375
0.222,-0.150625,-0.0496875
0.223,-0.1609375,-0.050625
0.224,-0.16625,-0.0515625
0.225,-0.1653125,-0.051875
0.226,-0.1584375,-0.0521875
0.227,-0.1453125,-0.0521875
0.228,-0.126875,-0.0521875
0.229,-0.104375,-0.05125
0.23,-0.0796875,-0.050625
0.231,-0.0546875,-0.0496875
0.232,-0.0309375,-0.04875
0.233,-0.0103125,-0.0484375
0.234,0.005,-0.0478125
0.235,0.015,-0.0475
0.236,0.0190625,-0.0475
0.237,0.0171875,-0.0478125
0.238,0.01,-0.04875
0.239,-0.000625,-0.0496875
0.24,-0.01375,-0.0509375
0.241,-0.026875,-0.0521875
0.242,-0.0384375,-0.0534375
0.243,-0.046875,-0.0546875
0.244,-0.050625,-0.055625
0.245,-0.04875,-0.05625
0.246,-0.0409375,-0.0565625
0.247,-0.0275,-0.0565625
0.248,-0.009375,-0.0565625
0.249,0.0121875,-0.0559375
0.25,0.035625,-0.0553125
0.251,0.0590625,-0.054375
0.252,0.080625,-0.05375
0.253,0.098125,-0.053125
0.254,0.110625,-0.0525
0.255,0.116875,-0.0525
0.256,0.1165625,-0.0525
0.257,0.1103125,-0.053125
0.258,0.09875,-0.05375
0.259,0.0825,-0.055
0.26,0.0640625,-0.05625
0.261,0.0453125,-0.0575
0.262,0.0278125,-0.05875
0.263,0.0134375,-0.06
0.264,0.0034375,-0.0609375
0.265,-0.0009375,-0.061875
0.266,0.0009375,-0.0621875
0.267,0.008125,-0.0621875
0.268,0.0209375,-0.0621875
0.269,0.0371875,-0.061875
0.27,0.055625,-0.06125
0.271,0.074375,-0.0603125
0.272,0.091875,-0.059375
0.273,0.10625,-0.0590625
0.274,0.115625,-0.0584375
0.275,0.119375,-0.0584375
0.276,0.116875,-0.0584375
0.277,0.10875,-0.05875
0.278,0.0953125,-0.0596875
0.279,0.078125,-0.0609375
0.28,0.0590625,-0.061875
0.281,0.0390625,-0.063125
0.282,0.02125,-0.064375
0.283,0.0065625,-0.065625
0.284,-0.0034375,-0.06625
0.285,-0.0078125,-0.066875
0.286,-0.0059375,-0.0675
0.287,0.001875,-0.0675
0.288,0.015,-0.066875
0.289,0.031875,-0.06625
0.29,0.05125,-0.065625
0.291,0.07125,-0.0646875
0.292,0.09,-0.06375
0.293,0.1053125,-0.0628125
0.294,0.1159375,-0.0621875
0.295,0.1209375,-0.061875
0.296,0.12,-0.061875
0.297,0.113125,-0.0621875
0.298,0.1009375,-0.0625
0.299,0.085,-0.0634375
0.3,0.066875,-0.064375
0.301,0.0478125,-0.0653125
0.302,0.030625,-0.0665625
0.303,0.01625,-0.0675
0.304,0.006875,-0.0684375
0.305,0.0028125,-0.06875
0.306,0.005,-0.069375
0.307,0.013125,-0.069375
0.308,0.02625,-0.06875
0.309,0.04375,-0.0684375
0.31,0.063125,-0.0675
0.311,0.0834375,-0.066875
0.312,0.1021875,-0.0659375
0.313,0.118125,-0.0653125
0.314,0.1290625,-0.064375
0.315,0.134375,-0.0640625
0.316,0.1334375,-0.0640625
0.317,0.1265625,-0.064375
0.318,0.114375,-0.065
0.319,0.098125,-0.065625
0.32,0.0790625,-0.066875
0.321,0.059375,-0.0678125
0.322,0.0409375,-0.06875
0.323,0.0253125,-0.0696875
0.324,0.0140625,-0.070625
0.325,0.008125,-0.0709375
0.326,0.0078125,-0.07125
0.327,0.0134375,-0.07125
0.328,0.0240625,-0.0709375
0.329,0.038125,-0.0703125
0.33,0.0546875,-0.069375
0.331,0.071875,-0.068125
0.332,0.0871875,-0.0675
0.333,0.0996875,-0.06625
0.334,0.106875,-0.0653125
0.335,0.10875,-0.065
0.336,0.1040625,-0.0646875
0.337,0.0934375,-0.0646875
0.338,0.0778125,-0.065
0.339,0.0575,-0.0653125
0.34,0.035,-0.06625
0.341,0.0115625,-0.066875
0.342,-0.010625,-0.0678125
0.343,-0.0296875,-0.0684375
0.344,-0.0446875,-0.06875
0.345,-0.05375,-0.0690625
0.346,-0.0571875,-0.0690625
0.347,-0.0546875,-0.06875
0.348,-0.0465625,-0.0684375
0.349,-0.035,-0.0671875
0.35,-0.020625,-0.06625
0.351,-0.0053125,-0.0653125
0.352,0.00875,-0.0640625
0.353,0.0196875,-0.0628125
0.354,0.02625,-0.0621875
0.355,0.0275,-0.0615625
0.356,0.0228125,-0.0609375
0.357,0.0121875,-0.0609375
0.358,-0.003125,-0.0615625
0.359,-0.0228125,-0.0615625
0.36,-0.0446875,-0.0625
0.361,-0.0671875,-0.0634375
0.362,-0.088125,-0.0640625
0.363,-0.10625,-0.0646875
0.364,-0.1196875,-0.0653125
0.365,-0.1275,-0.065625
0.366,-0.129375,-0.065625
0.367,-0.125,-0.065
0.368,-0.115625,-0.0646875
0.369,-0.101875,-0.06375
0.37,-0.085625,-0.0628125
0.371,-0.0684375,-0.0615625
0.372,-0.0525,-0.0603125
0.373,-0.0396875,-0.059375
0.374,-0.0309375,-0.0584375
0.375,-0.0278125,-0.0578125
0.376,-0.030625,-0.0575
0.377,-0.039375,-0.0575
0.378,-0.0528125,-0.0578125
0.379,-0.0703125,-0.058125
0.38,-0.090625,-0.05875
0.381,-0.11125,-0.0596875
0.382,-0.1309375,-0.0603125
0.383,-0.1471875,-0.06125
0.384,-0.159375,-0.0615625
0.385,-0.1659375,-0.0621875
0.386,-0.16625,-0.0621875
0.387,-0.1609375,-0.061875
0.388,-0.1503125,-0.0615625
0.389,-0.1353125,-0.0609375
0.39,-0.118125,-0.06
0.391,-0.1,-0.0590625
0.392,-0.083125,-0.058125
0.393,-0.0690625,-0.0571875
0.394,-0.0596875,-0.0565625
0.395,-0.0559375,-0.05625
0.396,-0.0584375,-0.0559375
0.397,-0.066875,-0.05625
0.398,-0.0803125,-0.0565625
0.399,-0.0984375,-0.0571875
0.4,-0.119375,-0.058125
0.401,-0.1409375,-0.0590625
0.402,-0.1615625,-0.06
0.403,-0.1796875,-0.0609375
0.404,-0.1934375,-0.061875
0.405,-0.201875,-0.0621875
0.406,-0.2046875,-0.0621875
0.407,-0.2015625,-0.0621875
0.408,-0.193125,-0.061875
0.409,-0.180625,-0.06125
0.41,-0.1653125,-0.0603125
0.411,-0.149375,-0.059375
0.412,-0.1346875,-0.0584375
0.413,-0.1225,-0.0575
0.414,-0.1146875,-0.0565625
0.415,-0.1125,-0.0559375
0.416,-0.1159375,-0.055625
0.417,-0.1253125,-0.0553125
0.418,-0.1396875,-0.055625
0.419,-0.1584375,-0.0559375
0.42,-0.179375,-0.0565625
0.421,-0.2015625,-0.056875
0.422,-0.2221875,-0.0571875
0.423,-0.2396875,-0.0578125
0.424,-0.253125,-0.058125
0.425,-0.2609375,-0.058125
0.426,-0.2628125,-0.0578125
0.427,-0.2584375,-0.0575
0.428,-0.24875,-0.0565625
0.429,-0.2346875,-0.055625
0.43,-0.2178125,-0.054375
0.431,-0.199375,-0.053125
0.432,-0.1821875,-0.051875
0.433,-0.1671875,-0.050625
0.434,-0.1565625,-0.0496875
0.435,-0.15125,-0.04875
0.436,-0.1515625,-0.048125
0.437,-0.1575,-0.0478125
0.438,-0.16875,-0.0478125
0.439,-0.1840625,-0.0484375
0.44,-0.2021875,-0.04875
0.441,-0.22125,-0.049375
0.442,-0.2390625,-0.0503125
0.443,-0.254375,-0.050625
0.444,-0.2659375,-0.0509375
0.445,-0.2721875,-0.0515625
0.446,-0.2728125,-0.0515625
0.447,-0.268125,-0.0515625
0.448,-0.258125,-0.0509375
0.449,-0.2440625,-0.050625
0.45,-0.2278125,-0.0496875
0.451,-0.210625,-0.0490625
0.452,-0.1946875,-0.048125
0.453,-0.18125,-0.0475
0.454,-0.1728125,-0.046875
0.455,-0.169375,-0.046875
0.456,-0.1721875,-0.046875
0.457,-0.180625,-0.0471875
0.458,-0.1940625,-0.0475
0.459,-0.2115625,-0.04875
0.46,-0.231875,-0.0496875
0.461,-0.253125,-0.050625
0.462,-0.2725,-0.051875
0.463,-0.289375,-0.0528125
0.464,-0.3021875,-0.05375
0.465,-0.3090625,-0.0546875
0.466,-0.3103125,-0.055
0.467,-0.305625,-0.0553125
0.468,-0.295625,-0.0553125
0.469,-0.2809375,-0.055
0.47,-0.26375,-0.0546875
0.471,-0.2453125,-0.05375
0.472,-0.2278125,-0.0534375
0.473,-0.2128125,-0.0528125
0.474,-0.201875,-0.0525
0.475,-0.19625,-0.0525
0.476,-0.1959375,-0.0525
0.477,-0.20125,-0.0528125
0.478,-0.21125,-0.05375
0.479,-0.2253125,-0.054375
0.48,-0.2415625,-0.055625
0.481,-0.25875,-0.0565625
0.482,-0.274375,-0.0578125
0.483,-0.286875,-0.0590625
0.484,-0.295,-0.06
0.485,-0.2975,-0.0609375
0.486,-0.2940625,-0.06125
0.487,-0.284375,-0.0615625
0.488,-0.2696875,-0.0615625
0.489,-0.2503125,-0.06125
0.49,-0.2284375,-0.0609375
0.491,-0.2059375,-0.0603125
0.492,-0.1840625,-0.06
0.493,-0.1646875,-0.059375
0.494,-0.15,-0.0590625
0.495,-0.140625,-0.0590625
0.496,-0.136875,-0.0590625
0.497,-0.1390625,-0.059375
0.498,-0.14625,-0.0603125
0.499,-0.1578125,-0.0609375
0.5,-0.1715625,-0.061875
0.501,-0.18625,-0.0628125
0.502,-0.1996875,-0.0640625
0.503,-0.2103125,-0.065
0.504,-0.216875,-0.0659375
0.505,-0.2175,-0.06625
0.506,-0.2121875,-0.066875
0.507,-0.20125,-0.066875
0.508,-0.185,-0.06625
0.509,-0.164375,-0.06625
0.51,-0.14125,-0.0653125
0.511,-0.1171875,-0.064375
0.512,-0.0940625,-0.06375
0.513,-0.07375,-0.0628125
0.514,-0.0578125,-0.0625
0.515,-0.0471875,-0.061875
0.516,-0.0428125,-0.0615625
0.517,-0.0446875,-0.0615625
0.518,-0.0515625,-0.061875
0.519,-0.0628125,-0.0625
0.52,-0.0771875,-0.0628125
0.521,-0.0921875,-0.06375
0.522,-0.106875,-0.064375
0.523,-0.11875,-0.0653125
0.524,-0.126875,-0.065625
0.525,-0.1296875,-0.0659375
0.526,-0.1275,-0.0659375
0.527,-0.1196875,-0.0659375
0.528,-0.106875,-0.065625
0.529,-0.0903125,-0.065
0.53,-0.0715625,-0.0640625
0.531,-0.051875,-0.0634375
0.532,-0.0340625,-0.0625
0.533,-0.019375,-0.0615625
0.534,-0.0090625,-0.06125
0.535,-0.0046875,-0.060625
0.536,-0.0065625,-0.060625
0.537,-0.0146875,-0.060625
0.538,-0.028125,-0.06125
0.539,-0.0459375,-0.061875
0.54,-0.0665625,-0.0625
0.541,-0.0884375,-0.0634375
0.542,-0.109375,-0.064375
0.543,-0.1278125,-0.0653125
0.544,-0.1421875,-0.0659375
0.545,-0.15125,-0.06625
0.546,-0.1546875,-0.0665625
0.547,-0.1525,-0.0665625
0.548,-0.145,-0.0659375
0.549,-0.13375,-0.065625
0.55,-0.119375,-0.0646875
0.551,-0.104375,-0.0640625
0.552,-0.090625,-0.0628125
0.553,-0.079375,-0.0621875
0.554,-0.0721875,-0.06125
0.555,-0.070625,-0.060625
0.556,-0.0746875,-0.0603125
0.557,-0.084375,-0.0603125
0.558,-0.0990625,-0.0603125
0.559,-0.1178125,-0.060625
0.56,-0.1390625,-0.0609375
0.561,-0.1609375,-0.0615625
0.562,-0.181875,-0.061875
0.563,-0.2,-0.0625
0.564,-0.2134375,-0.0628125
0.565,-0.221875,-0.0628125
0.566,-0.224375,-0.0628125
0.567,-0.2209375,-0.0625
0.568,-0.2121875,-0.0615625
0.569,-0.1996875,-0.0609375
0.57,-0.1840625,-0.06
0.571,-0.1678125,-0.0590625
0.572,-0.1521875,-0.0578125
0.573,-0.1396875,-0.0565625
0.574,-0.13125,-0.0559375
0.575,-0.128125,-0.055
0.576,-0.1303125,-0.0546875
0.577,-0.1384375,-0.054375
0.578,-0.151875,-0.054375
0.579,-0.1690625,-0.0546875
0.58,-0.1884375,-0.0553125
0.581,-0.20875,-0.055625
0.582,-0.228125,-0.0565625
0.583,-0.2440625,-0.056875
0.584,-0.255625,-0.0571875
0.585,-0.261875,-0.0575
0.586,-0.261875,-0.0575
0.587,-0.2559375,-0.0575
0.588,-0.244375,-0.0571875
0.589,-0.2284375,-0.0565625
0.59,-0.2096875,-0.0559375
0.591,-0.1896875,-0.055
0.592,-0.1703125,-0.054375
0.593,-0.15375,-0.0534375
0.594,-0.140625,-0.053125
0.595,-0.1328125,-0.0525
0.596,-0.1309375,-0.0525
0.597,-0.1340625,-0.0528125
0.598,-0.1428125,-0.053125
0.599,-0.1553125,-0.0540625
0.6,-0.1703125,-0.0546875
0.601,-0.18625,-0.055625
0.602,-0.200625,-0.056875
0.603,-0.213125,-0.0578125
0.604,-0.2209375,-0.05875
0.605,-0.2234375,-0.0596875
0.606,-0.2203125,-0.06
0.607,-0.21125,-0.060625
0.608,-0.1971875,-0.060625
0.609,-0.1790625,-0.060625
0.61,-0.1584375,-0.060625
0.611,-0.136875,-0.0603125
0.612,-0.11625,-0.06
0.613,-0.098125,-0.0596875
0.614,-0.085,-0.0596875
0.615,-0.076875,-0.0596875
0.616,-0.0746875,-0.0603125
0.617,-0.07875,-0.060625
0.618,-0.0878125,-0.0615625
0.619,-0.1015625,-0.0625
0.62,-0.118125,-0.06375
0.621,-0.135625,-0.065
0.622,-0.1521875,-0.0659375
0.623,-0.16625,-0.0671875
0.624,-0.17625,-0.068125
0.625,-0.1809375,-0.0690625
0.626,-0.18,-0.069375
0.627,-0.1728125,-0.0696875
0.628,-0.160625,-0.0696875
0.629,-0.14375,-0.0690625
0.63,-0.124375,-0.06875
0.631,-0.1034375,-0.0678125
0.632,-0.083125,-0.0675
0.633,-0.065625,-0.0665625
0.634,-0.051875,-0.0659375
0.635,-0.0434375,-0.065625
0.636,-0.040625,-0.065
0.637,-0.0434375,-0.065
0.638,-0.0515625,-0.065
0.639,-0.0640625,-0.065625
0.64,-0.0790625,-0.0659375
0.641,-0.0953125,-0.06625
0.642,-0.110625,-0.066875
0.643,-0.1234375,-0.0675
0.644,-0.1321875,-0.0678125
0.645,-0.135625,-0.0678125
0.646,-0.13375,-0.0678125
0.647,-0.1259375,-0.0678125
0.648,-0.113125,-0.0671875
0.649,-0.0959375,-0.0665625
0.65,-0.07625,-0.065625
0.651,-0.0553125,-0.065
0.652,-0.0353125,-0.06375
0.653,-0.018125,-0.063125
0.654,-0.005,-0.0621875
0.655,0.0025,-0.061875
0.656,0.004375,-0.06125
0.657,0,-0.06125
0.658,-0.0096875,-0.0615625
0.659,-0.02375,-0.061875
0.66,-0.040625,-0.0621875
0.661,-0.05875,-0.063125
0.662,-0.0759375,-0.06375
0.663,-0.090625,-0.0640625
0.664,-0.10125,-0.065
0.665,-0.106875,-0.0653125
0.666,-0.1065625,-0.0653125
0.667,-0.1,-0.0653125
0.668,-0.088125,-0.0653125
0.669,-0.071875,-0.0646875
0.67,-0.0525,-0.06375
0.671,-0.031875,-0.0634375
0.672,-0.0115625,-0.0625
0.673,0.00625,-0.0615625
0.674,0.02,-0.06125
0.675,0.02875,-0.060625
0.676,0.0315625,-0.060625
0.677,0.0284375,-0.060625
0.678,0.0196875,-0.060625
0.679,0.0065625,-0.06125
0.68,-0.0096875,-0.0615625
0.681,-0.0271875,-0.0625
0.682,-0.044375,-0.0634375
0.683,-0.0596875,-0.0640625
0.684,-0.0709375,-0.064375
0.685,-0.0771875,-0.0646875
0.686,-0.0784375,-0.065
0.687,-0.07375,-0.065
0.688,-0.0640625,-0.0646875
0.689,-0.0503125,-0.064375
0.69,-0.0334375,-0.0634375
0.691,-0.015625,-0.063125
0.692,0.00125,-0.0621875
0.693,0.0159375,-0.061875
0.694,0.02625,-0.0609375
0.695,0.03125,-0.060625
0.696,0.03,-0.0603125
0.697,0.0228125,-0.0603125
0.698,0.0103125,-0.060625
0.699,-0.0071875,-0.0609375
0.7,-0.0275,-0.06125
0.701,-0.0496875,-0.061875
0.702,-0.07125,-0.0628125
0.703,-0.0903125,-0.063125
0.704,-0.105625,-0.06375
0.705,-0.11625,-0.06375
0.706,-0.120625,-0.06375
0.707,-0.1190625,-0.06375
0.708,-0.1121875,-0.0634375
0.709,-0.100625,-0.0628125
0.71,-0.085625,-0.061875
0.711,-0.0690625,-0.0609375
0.712,-0.0525,-0.0596875
0.713,-0.038125,-0.0590625
0.714,-0.026875,-0.058125
0.715,-0.0209375,-0.0571875
0.716,-0.0203125,-0.056875
0.717,-0.025,-0.0565625
0.718,-0.0353125,-0.0565625
0.719,-0.0496875,-0.0565625
0.72,-0.066875,-0.056875
0.721,-0.085625,-0.0571875
0.722,-0.1034375,-0.0575
0.723,-0.1190625,-0.0578125
0.724,-0.1309375,-0.058125
0.725,-0.1378125,-0.058125
0.726,-0.1390625,-0.058125
0.727,-0.1346875,-0.0575
0.728,-0.1246875,-0.0571875
0.729,-0.11,-0.05625
0.73,-0.0928125,-0.055625
0.731,-0.07375,-0.054375
0.732,-0.055,-0.0534375
0.733,-0.03875,-0.0525
0.734,-0.02625,-0.0515625
0.735,-0.01875,-0.0509375
0.736,-0.016875,-0.050625
0.737,-0.020625,-0.0503125
0.738,-0.03,-0.0503125
0.739,-0.0434375,-0.050625
0.74,-0.0603125,-0.0509375
0.741,-0.078125,-0.0515625
0.742,-0.095625,-0.0521875
0.743,-0.110625,-0.0525
0.744,-0.1221875,-0.053125
0.745,-0.1284375,-0.0534375
0.746,-0.129375,-0.0534375
0.747,-0.124375,-0.0534375
0.748,-0.1140625,-0.053125
0.749,-0.0990625,-0.0528125
0.75,-0.08125,-0.0521875
0.751,-0.0615625,-0.05125
0.752,-0.0428125,-0.050625
0.753,-0.0259375,-0.0503125
0.754,-0.013125,-0.049375
0.755,-0.0053125,-0.0490625
0.756,-0.0034375,-0.04875
0.757,-0.0071875,-0.04875
0.758,-0.016875,-0.049375
0.759,-0.0309375,-0.0496875
0.76,-0.048125,-0.0503125
0.761,-0.066875,-0.0509375
0.762,-0.085625,-0.051875
0.763,-0.1025,-0.0521875
0.764,-0.1159375,-0.053125
0.765,-0.124375,-0.0534375
0.766,-0.1278125,-0.05375
0.767,-0.1259375,-0.05375
0.768,-0.11875,-0.05375
0.769,-0.1075,-0.053125
0.77,-0.0934375,-0.0528125
0.771,-0.078125,-0.0521875
0.772,-0.06375,-0.0515625
0.773,-0.05125,-0.0509375
0.774,-0.043125,-0.0503125
0.775,-0.0403125,-0.05
0.776,-0.043125,-0.05
0.777,-0.051875,-0.05
0.778,-0.06625,-0.0503125
0.779,-0.085,-0.050625
0.78,-0.1071875,-0.0509375
0.781,-0.1309375,-0.051875
0.782,-0.154375,-0.0525
0.783,-0.175625,-0.0534375
0.784,-0.1934375,-0.05375
0.785,-0.2065625,-0.054375
0.786,-0.214375,-0.0546875
0.787,-0.21625,-0.0546875
0.788,-0.2128125,-0.0546875
0.789,-0.205,-0.054375
0.79,-0.1940625,-0.05375
0.791,-0.181875,-0.0534375
0.792,-0.1696875,-0.053125
0.793,-0.1596875,-0.0525
0.794,-0.1534375,-0.0521875
0.795,-0.151875,-0.051875
0.796,-0.1559375,-0.051875
0.797,-0.1653125,-0.0521875
0.798,-0.18,-0.0525
0.799,-0.19875,-0.053125
0.8,-0.220625,-0.0540625
0.801,-0.243125,-0.0546875
0.802,-0.265,-0.0553125
0.803,-0.2846875,-0.05625
0.804,-0.3,-0.0565625
0.805,-0.31,-0.0571875
0.806,-0.3140625,-0.0578125
0.807,-0.3121875,-0.0578125
0.808,-0.304375,-0.0575
0.809,-0.2915625,-0.0571875
0.81,-0.2753125,-0.056875
0.811,-0.2571875,-0.0559375
0.812,-0.23875,-0.0553125
0.813,-0.2221875,-0.054375
0.814,-0.20875,-0.05375
0.815,-0.2,-0.0534375
0.816,-0.196875,-0.053125
0.817,-0.19875,-0.053125
0.818,-0.2059375,-0.053125
0.819,-0.2175,-0.053125
0.82,-0.231875,-0.0534375
0.821,-0.2475,-0.0540625
0.822,-0.2628125,-0.054375
0.823,-0.2759375,-0.0546875
0.824,-0.2853125,-0.055
0.825,-0.2896875,-0.0553125
0.826,-0.28875,-0.0553125
0.827,-0.281875,-0.055
0.828,-0.27,-0.0546875
0.829,-0.2534375,-0.0540625
0.83,-0.2340625,-0.053125
0.831,-0.213125,-0.0525
0.832,-0.1928125,-0.0515625
0.833,-0.175,-0.050625
0.834,-0.160625,-0.05
0.835,-0.1521875,-0.0496875
0.836,-0.149375,-0.0490625
0.837,-0.153125,-0.0490625
0.838,-0.1625,-0.049375
0.839,-0.176875,-0.0496875
0.84,-0.195,-0.05
0.841,-0.2153125,-0.0503125
0.842,-0.235625,-0.05125
0.843,-0.254375,-0.051875
0.844,-0.27,-0.0525
0.845,-0.28125,-0.0528125
0.846,-0.2875,-0.053125
0.847,-0.288125,-0.053125
0.848,-0.2834375,-0.053125
0.849,-0.2746875,-0.0528125
0.85,-0.2628125,-0.0521875
0.851,-0.2490625,-0.051875
0.852,-0.2359375,-0.0509375
0.853,-0.2246875,-0.050625
0.854,-0.2171875,-0.0503125
0.855,-0.214375,-0.0496875
0.856,-0.216875,-0.0496875
0.857,-0.2253125,-0.0496875
0.858,-0.23875,-0.05
0.859,-0.256875,-0.0503125
0.86,-0.2778125,-0.050625
0.861,-0.3003125,-0.0515625
0.862,-0.3221875,-0.051875
0.863,-0.3421875,-0.0528125
0.864,-0.358125,-0.053125
0.865,-0.369375,-0.05375
0.866,-0.375,-0.05375
0.867,-0.374375,-0.05375
0.868,-0.3684375,-0.05375
0.869,-0.3575,-0.0534375
0.87,-0.3434375,-0.053125
0.871,-0.326875,-0.0525
0.872,-0.310625,-0.0515625
0.873,-0.29625,-0.05125
0.874,-0.285,-0.050625
0.875,-0.2784375,-0.0503125
0.876,-0.2771875,-0.0503125
0.877,-0.28125,-0.0503125
0.878,-0.290625,-0.0503125
0.879,-0.304375,-0.0509375
0.88,-0.3209375,-0.05125
0.881,-0.3390625,-0.0515625
0.882,-0.356875,-0.0525
0.883,-0.3721875,-0.053125
0.884,-0.38375,-0.0534375
0.885,-0.390625,-0.0540625
0.886,-0.391875,-0.0540625
0.887,-0.3871875,-0.0540625
0.888,-0.3765625,-0.0540625
0.889,-0.36125,-0.0534375
0.89,-0.3425,-0.053125
0.891,-0.321875,-0.0528125
0.892,-0.30125,-0.0521875
0.893,-0.2825,-0.05125
0.894,-0.266875,-0.0509375
0.895,-0.25625,-0.050625
0.896,-0.250625,-0.0503125
0.897,-0.25125,-0.0503125
0.898,-0.2571875,-0.050625
0.899,-0.2675,-0.0509375
0.9,-0.2809375,-0.05125
0.901,-0.29625,-0.0521875
0.902,-0.3115625,-0.0525
0.903,-0.324375,-0.0534375
0.904,-0.334375,-0.05375
0.905,-0.3390625,-0.054375
0.906,-0.3384375,-0.0546875
0.907,-0.3321875,-0.0546875
0.908,-0.3203125,-0.054375
0.909,-0.3040625,-0.054375
0.91,-0.2840625,-0.05375
0.911,-0.2628125,-0.0534375
0.912,-0.24125,-0.0528125
0.913,-0.221875,-0.0525
0.914,-0.2059375,-0.0521875
0.915,-0.195,-0.051875
0.916,-0.1896875,-0.051875
0.917,-0.1903125,-0.0521875
0.918,-0.1965625,-0.0525
0.919,-0.2075,-0.053125
0.92,-0.221875,-0.05375
0.921,-0.2384375,-0.0546875
0.922,-0.2546875,-0.0553125
0.923,-0.2690625,-0.05625
0.924,-0.2803125,-0.0571875
0.925,-0.286875,-0.0578125
0.926,-0.2878125,-0.058125
0.927,-0.283125,-0.05875
0.928,-0.273125,-0.05875
0.929,-0.2584375,-0.05875
0.93,-0.2403125,-0.0584375
0.931,-0.22,-0.058125
0.932,-0.2,-0.0578125
0.933,-0.181875,-0.0575
0.934,-0.1671875,-0.0571875
0.935,-0.1575,-0.056875
0.936,-0.153125,-0.056875
0.937,-0.155,-0.0571875
0.938,-0.1621875,-0.0575
0.939,-0.1746875,-0.0578125
0.94,-0.190625,-0.05875
0.941,-0.2084375,-0.0590625
0.942,-0.22625,-0.0596875
0.943,-0.2425,-0.060625
0.944,-0.255625,-0.0609375
0.945,-0.2646875,-0.06125
0.946,-0.268125,-0.0615625
0.947,-0.26625,-0.0615625
0.948,-0.25875,-0.06125
0.949,-0.2465625,-0.0609375
0.95,-0.23125,-0.060625
0.951,-0.214375,-0.06
0.952,-0.1975,-0.0590625
0.953,-0.1825,-0.058125
0.954,-0.1709375,-0.0575
0.955,-0.164375,-0.0571875
0.956,-0.1634375,-0.056875
0.957,-0.168125,-0.0565625
0.958,-0.17875,-0.0565625
0.959,-0.194375,-0.0565625
0.96,-0.213125,-0.056875
0.961,-0.2340625,-0.0575
0.962,-0.2553125,-0.0578125
0.963,-0.2746875,-0.058125
0.964,-0.2909375,-0.05875
0.965,-0.3028125,-0.05875
0.966,-0.309375,-0.05875
0.967,-0.3103125,-0.05875
0.968,-0.3059375,-0.05875
0.969,-0.296875,-0.058125
0.97,-0.2846875,-0.0578125
0.971,-0.2703125,-0.056875
0.972,-0.2559375,-0.05625
0.973,-0.2434375,-0.0559375
0.974,-0.2346875,-0.055625
0.975,-0.2303125,-0.055
0.976,-0.2315625,-0.055
0.977,-0.2384375,-0.055
0.978,-0.2509375,-0.055
0.979,-0.268125,-0.0553125
0.98,-0.2884375,-0.0559375
0.981,-0.3109375,-0.05625
0.982,-0.3334375,-0.0571875
0.983,-0.3540625,-0.0578125
0.984,-0.3715625,-0.058125
0.985,-0.3840625,-0.0584375
0.986,-0.39125,-0.05875
0.987,-0.3928125,-0.05875
0.988,-0.3884375,-0.05875
0.989,-0.379375,-0.058125
0.99,-0.366875,-0.0578125
0.991,-0.351875,-0.0575
0.992,-0.3365625,-0.0565625
0.993,-0.323125,-0.0559375
0.994,-0.3121875,-0.055625
0.995,-0.3059375,-0.055
0.996,-0.304375,-0.0546875
0.997,-0.3084375,-0.0546875
0.998,-0.3175,-0.0546875
0.999,-0.33125,-0.0553125
1,-0.3478125,-0.0553125
1.001,-0.365625,-0.0559375
1.002,-0.383125,-0.0565625
1.003,-0.39875,-0.056875
1.004,-0.410625,-0.0571875
1.005,-0.4178125,-0.0578125
1.006,-0.419375,-0.0578125
1.007,-0.415,-0.0578125
1.008,-0.4046875,-0.0578125
1.009,-0.3896875,-0.0571875
1.01,-0.37125,-0.056875
1.011,-0.350625,-0.05625
1.012,-0.33,-0.0559375
1.013,-0.3109375,-0.055
1.014,-0.2946875,-0.054375
1.015,-0.28375,-0.0540625
1.016,-0.2778125,-0.05375
1.017,-0.2778125,-0.05375
1.018,-0.283125,-0.05375
1.019,-0.293125,-0.05375
1.02,-0.3065625,-0.054375
1.021,-0.321875,-0.0546875
1.022,-0.3375,-0.055
1.023,-0.35125,-0.0553125
1.024,-0.3621875,-0.0559375
1.025,-0.368125,-0.0559375
1.026,-0.369375,-0.0559375
1.027,-0.3646875,-0.0559375
1.028,-0.3546875,-0.0553125
1.029,-0.3403125,-0.055
1.03,-0.3225,-0.054375
1.031,-0.3028125,-0.0534375
1.032,-0.283125,-0.0528125
1.033,-0.2653125,-0.051875
1.034,-0.2509375,-0.0515625
1.035,-0.24125,-0.050625
1.036,-0.2371875,-0.0503125
1.037,-0.23875,-0.05
1.038,-0.2459375,-0.0496875
1.039,-0.2578125,-0.0496875
1.04,-0.2728125,-0.05
1.041,-0.29,-0.05
1.042,-0.306875,-0.050625
1.043,-0.3225,-0.050625
1.044,-0.3346875,-0.0509375
1.045,-0.3421875,-0.05125
1.046,-0.344375,-0.05125
1.047,-0.34125,-0.05125
1.048,-0.3325,-0.0509375
1.049,-0.3190625,-0.0503125
1.05,-0.3025,-0.05
1.051,-0.2840625,-0.0496875
1.052,-0.265625,-0.04875
1.053,-0.249375,-0.0484375
1.054,-0.23625,-0.0478125
1.055,-0.228125,-0.0475
1.056,-0.225625,-0.0475
1.057,-0.22875,-0.0475
1.058,-0.2378125,-0.0475
1.059,-0.2515625,-0.048125
1.06,-0.2690625,-0.04875
1.061,-0.2884375,-0.0490625
1.062,-0.308125,-0.0496875
1.063,-0.3259375,-0.0503125
1.064,-0.340625,-0.050625
1.065,-0.3509375,-0.05125
1.066,-0.355625,-0.0515625
1.067,-0.354375,-0.0515625
1.068,-0.348125,-0.0515625
1.069,-0.336875,-0.05125
1.07,-0.321875,-0.0509375
1.071,-0.305,-0.0503125
1.072,-0.2878125,-0.05
1.073,-0.2725,-0.0490625
1.074,-0.2603125,-0.04875
1.075,-0.2521875,-0.0484375
1.076,-0.25,-0.0478125
1.077,-0.2534375,-0.0478125
1.078,-0.2621875,-0.0478125
1.079,-0.275625,-0.0478125
1.08,-0.2925,-0.048125
1.081,-0.3115625,-0.048125
1.082,-0.330625,-0.0484375
1.083,-0.3478125,-0.0490625
1.084,-0.361875,-0.0490625
1.085,-0.3715625,-0.0490625
1.086,-0.3759375,-0.0490625
1.087,-0.3746875,-0.0490625
1.088,-0.368125,-0.04875
1.089,-0.356875,-0.048125
1.09,-0.3421875,-0.0478125
1.091,-0.325625,-0.046875
1.092,-0.30875,-0.04625
1.093,-0.29375,-0.045625
1.094,-0.281875,-0.045
1.095,-0.275,-0.0446875
1.096,-0.27375,-0.0440625
1.097,-0.278125,-0.0440625
1.098,-0.2884375,-0.0440625
1.099,-0.3034375,-0.044375
1.1,-0.3225,-0.0446875
1.101,-0.343125,-0.0453125
1.102,-0.364375,-0.045625
1.103,-0.3840625,-0.04625
1.104,-0.400625,-0.0465625
1.105,-0.4128125,-0.0471875
1.106,-0.4196875,-0.0471875
1.107,-0.420625,-0.0475
1.108,-0.4159375,-0.0475
1.109,-0.40625,-0.0471875
1.11,-0.3928125,-0.046875
1.111,-0.3771875,-0.0465625
1.112,-0.3609375,-0.04625
1.113,-0.3459375,-0.0459375
1.114,-0.3340625,-0.045625
1.115,-0.32625,-0.0453125
1.116,-0.3240625,-0.0453125
1.117,-0.326875,-0.0453125
1.118,-0.3353125,-0.045625
1.119,-0.3484375,-0.0459375
1.12,-0.3646875,-0.04625
1.121,-0.3828125,-0.0471875
1.122,-0.4009375,-0.0475
1.123,-0.4171875,-0.0484375
1.124,-0.4303125,-0.04875
1.125,-0.4390625,-0.0490625
1.126,-0.441875,-0.0496875
1.127,-0.43875,-0.0496875
1.128,-0.4296875,-0.0496875
1.129,-0.415625,-0.049375
1.13,-0.3978125,-0.049375
1.131,-0.3775,-0.04875
1.132,-0.35625,-0.0484375
1.133,-0.3365625,-0.048125
1.134,-0.32,-0.0478125
1.135,-0.3071875,-0.0475
1.136,-0.3003125,-0.0475
1.137,-0.29875,-0.0475
1.138,-0.303125,-0.0475
1.139,-0.311875,-0.0478125
1.14,-0.324375,-0.0484375
1.141,-0.3390625,-0.04875
1.142,-0.354375,-0.0496875
1.143,-0.368125,-0.05
1.144,-0.3790625,-0.0503125
1.145,-0.385625,-0.0509375
1.146,-0.3865625,-0.05125
1.147,-0.3821875,-0.0515625
1.148,-0.3725,-0.0515625
1.149,-0.3575,-0.05125
1.15,-0.3390625,-0.05125
1.151,-0.318125,-0.0509375
1.152,-0.2971875,-0.050625
1.153,-0.2775,-0.0503125
1.154,-0.2609375,-0.05
1.155,-0.2490625,-0.0496875
1.156,-0.2428125,-0.0496875
1.157,-0.2421875,-0.05
1.158,-0.2478125,-0.0503125
1.159,-0.2584375,-0.050625
1.16,-0.273125,-0.0509375
1.161,-0.2903125,-0.0515625
1.162,-0.30875,-0.0525
1.163,-0.325625,-0.053125
1.164,-0.34,-0.0540625
1.165,-0.350625,-0.054375
1.166,-0.35625,-0.0546875
1.167,-0.35625,-0.0553125
1.168,-0.3509375,-0.0553125
1.169,-0.34125,-0.0553125
1.17,-0.3275,-0.0553125
1.171,-0.311875,-0.0553125
1.172,-0.295625,-0.0553125
1.173,-0.2809375,-0.0553125
1.174,-0.269375,-0.0553125
1.175,-0.2625,-0.0553125
1.176,-0.2609375,-0.055625
1.177,-0.265625,-0.0559375
1.178,-0.2759375,-0.0565625
1.179,-0.2915625,-0.0571875
1.18,-0.3115625,-0.058125
1.181,-0.33375,-0.0590625
1.182,-0.3571875,-0.0603125
1.183,-0.379375,-0.0609375
1.184,-0.39875,-0.0621875
1.185,-0.414375,-0.0628125
1.186,-0.425,-0.06375
1.187,-0.43,-0.0646875
1.188,-0.429375,-0.065
1.189,-0.4240625,-0.0653125
1.19,-0.414375,-0.065625
1.191,-0.4025,-0.0659375
1.192,-0.3896875,-0.0659375
1.193,-0.3778125,-0.0659375
1.194,-0.3684375,-0.0659375
1.195,-0.3634375,-0.06625
1.196,-0.363125,-0.0665625
1.197,-0.3684375,-0.066875
1.198,-0.379375,-0.0671875
1.199,-0.3946875,-0.068125
1.2,-0.41375,-0.0690625
1.201,-0.4346875,-0.0696875
1.202,-0.4559375,-0.0703125
1.203,-0.4759375,-0.07125
1.204,-0.493125,-0.0715625
1.205,-0.505625,-0.0725
1.206,-0.5128125,-0.0728125
1.207,-0.5140625,-0.073125
1.208,-0.509375,-0.073125
1.209,-0.4990625,-0.073125
1.21,-0.485,-0.0728125
1.211,-0.4678125,-0.0725
1.212,-0.449375,-0.0721875
1.213,-0.431875,-0.0715625
1.214,-0.4165625,-0.07125
1.215,-0.405625,-0.070625
1.216,-0.3990625,-0.070625
1.217,-0.398125,-0.07
1.218,-0.4025,-0.07
1.219,-0.411875,-0.07
1.22,-0.4246875,-0.0703125
1.221,-0.44,-0.0703125
1.222,-0.455625,-0.070625
1.223,-0.470625,-0.070625
1.224,-0.483125,-0.0709375
1.225,-0.4915625,-0.0709375
1.226,-0.4953125,-0.0709375
1.227,-0.4934375,-0.070625
1.228,-0.4865625,-0.0703125
1.229,-0.4746875,-0.07
1.23,-0.459375,-0.0690625
1.231,-0.4421875,-0.0684375
1.232,-0.424375,-0.068125
1.233,-0.408125,-0.0671875
1.234,-0.395,-0.06625
1.235,-0.3865625,-0.0659375
1.236,-0.3834375,-0.0653125
1.237,-0.3865625,-0.065
1.238,-0.395625,-0.0646875
1.239,-0.41,-0.0646875
1.24,-0.42875,-0.065
1.241,-0.4496875,-0.065
1.242,-0.471875,-0.065
1.243,-0.4934375,-0.0653125
1.244,-0.5121875,-0.0653125
1.245,-0.5271875,-0.065625
1.246,-0.5371875,-0.065625
1.247,-0.5415625,-0.0653125
1.248,-0.5403125,-0.065
1.249,-0.5340625,-0.0646875
1.25,-0.52375,-0.064375
1.251,-0.5109375,-0.06375
1.252,-0.496875,-0.0628125
1.253,-0.48375,-0.0625
1.254,-0.473125,-0.0621875
1.255,-0.46625,-0.0615625
1.256,-0.464375,-0.06125
1.257,-0.4675,-0.06125
1.258,-0.47625,-0.06125
1.259,-0.4896875,-0.06125
1.26,-0.50625,-0.0615625
1.261,-0.5253125,-0.061875
1.262,-0.5453125,-0.0621875
1.263,-0.5634375,-0.0628125
1.264,-0.57875,-0.063125
1.265,-0.59,-0.06375
1.266,-0.5959375,-0.0640625
1.267,-0.5965625,-0.064375
1.268,-0.5909375,-0.064375
1.269,-0.580625,-0.064375
1.27,-0.56625,-0.0640625
1.271,-0.549375,-0.0640625
1.272,-0.53125,-0.06375
1.273,-0.514375,-0.0634375
1.274,-0.5003125,-0.063125
1.275,-0.49,-0.063125
1.276,-0.485,-0.063125
1.277,-0.485625,-0.063125
1.278,-0.4915625,-0.06375
1.279,-0.5028125,-0.06375
1.28,-0.5178125,-0.064375
1.281,-0.535,-0.0646875
1.282,-0.553125,-0.0653125
1.283,-0.5703125,-0.06625
1.284,-0.5846875,-0.0665625
1.285,-0.595,-0.066875
1.286,-0.600625,-0.0671875
1.287,-0.6,-0.0675
1.288,-0.5940625,-0.0675
1.289,-0.5828125,-0.0671875
1.29,-0.5675,-0.066875
1.291,-0.549375,-0.0665625
1.292,-0.53,-0.06625
1.293,-0.511875,-0.065625
1.294,-0.4959375,-0.0653125
1.295,-0.48375,-0.065
1.296,-0.476875,-0.0646875
1.297,-0.475,-0.064375
1.298,-0.478125,-0.064375
1.299,-0.48625,-0.064375
1.3,-0.4978125,-0.0646875
1.301,-0.51125,-0.065
1.302,-0.525625,-0.0653125
1.303,-0.5384375,-0.0653125
1.304,-0.5484375,-0.065625
1.305,-0.554375,-0.065625
1.306,-0.555,-0.065625
1.307,-0.5496875,-0.065625
1.308,-0.5390625,-0.065625
1.309,-0.523125,-0.065
1.31,-0.5034375,-0.0646875
1.311,-0.48125,-0.0640625
1.312,-0.4584375,-0.06375
1.313,-0.4365625,-0.063125
1.314,-0.4171875,-0.0628125
1.315,-0.4025,-0.0621875
1.316,-0.3928125,-0.061875
1.317,-0.38875,-0.061875
1.318,-0.390625,-0.061875
1.319,-0.3975,-0.061875
1.32,-0.4084375,-0.0621875
1.321,-0.4215625,-0.0621875
1.322,-0.435625,-0.0625
1.323,-0.4490625,-0.063125
1.324,-0.459375,-0.063125
1.325,-0.4659375,-0.0634375
1.326,-0.4678125,-0.0634375
1.327,-0.4634375,-0.0634375
1.328,-0.4540625,-0.063125
1.329,-0.439375,-0.0628125
1.33,-0.420625,-0.0621875
1.331,-0.399375,-0.061875
1.332,-0.3771875,-0.06125
1.333,-0.35625,-0.0603125
1.334,-0.3378125,-0.0596875
1.335,-0.3234375,-0.059375
1.336,-0.3140625,-0.05875
1.337,-0.310625,-0.058125
1.338,-0.3121875,-0.0578125
1.339,-0.3190625,-0.0578125
1.34,-0.329375,-0.0578125
1.341,-0.3421875,-0.0578125
1.342,-0.3559375,-0.0578125
1.343,-0.368125,-0.0578125
1.344,-0.3778125,-0.0578125
1.345,-0.38375,-0.0578125
1.346,-0.384375,-0.0575
1.347,-0.3796875,-0.0575
1.348,-0.369375,-0.056875
1.349,-0.354375,-0.0565625
1.35,-0.335625,-0.05625
1.351,-0.3146875,-0.0553125
1.352,-0.293125,-0.0546875
1.353,-0.2725,-0.054375
1.354,-0.2553125,-0.05375
1.355,-0.2421875,-0.0534375
1.356,-0.235,-0.053125
1.357,-0.2334375,-0.053125
1.358,-0.2378125,-0.053125
1.359,-0.2475,-0.053125
1.36,-0.26125,-0.0534375
1.361,-0.2778125,-0.0540625
1.362,-0.2953125,-0.054375
1.363,-0.3121875,-0.055
1.364,-0.3265625,-0.055625
1.365,-0.3371875,-0.0559375
1.366,-0.343125,-0.05625
1.367,-0.34375,-0.0565625
1.368,-0.3390625,-0.056875
1.369,-0.3296875,-0.056875
1.37,-0.3165625,-0.056875
1.371,-0.30125,-0.0565625
1.372,-0.2853125,-0.0565625
1.373,-0.2709375,-0.0565625
1.374,-0.2590625,-0.05625
1.375,-0.2515625,-0.05625
1.376,-0.249375,-0.0565625
1.377,-0.253125,-0.0565625
1.378,-0.2625,-0.056875
1.379,-0.276875,-0.0571875
1.38,-0.2953125,-0.0578125
1.381,-0.31625,-0.058125
1.382,-0.3378125,-0.05875
1.383,-0.3584375,-0.0590625
1.384,-0.37625,-0.0596875
1.385,-0.39,-0.06
1.386,-0.3990625,-0.0603125
1.387,-0.4021875,-0.0603125
1.388,-0.3996875,-0.0603125
1.389,-0.3921875,-0.06
1.39,-0.380625,-0.0596875
1.391,-0.36625,-0.059375
1.392,-0.35125,-0.05875
1.393,-0.336875,-0.0584375
1.394,-0.325,-0.058125
1.395,-0.3175,-0.0575
1.396,-0.3146875,-0.0575
1.397,-0.3175,-0.0571875
1.398,-0.3259375,-0.056875
1.399,-0.3390625,-0.0571875
1.4,-0.355625,-0.0571875
1.401,-0.3753125,-0.0571875
1.402,-0.395,-0.0575
1.403,-0.41375,-0.0578125
1.404,-0.4296875,-0.058125
1.405,-0.4415625,-0.058125
1.406,-0.4484375,-0.058125
1.407,-0.4490625,-0.058125
1.408,-0.4440625,-0.0578125
1.409,-0.43375,-0.0575
1.41,-0.419375,-0.056875
1.411,-0.401875,-0.0565625
1.412,-0.3834375,-0.0559375
1.413,-0.3659375,-0.055625
1.414,-0.350625,-0.055
1.415,-0.339375,-0.0546875
1.416,-0.3334375,-0.054375
1.417,-0.3328125,-0.0540625
1.418,-0.3378125,-0.0540625
1.419,-0.348125,-0.0540625
1.42,-0.3621875,-0.054375
1.421,-0.379375,-0.0546875
1.422,-0.3971875,-0.0546875
1.423,-0.414375,-0.0553125
1.424,-0.4290625,-0.055625
1.425,-0.4396875,-0.055625
1.426,-0.4459375,-0.0559375
1.427,-0.44625,-0.0559375
1.428,-0.44125,-0.055625
1.429,-0.4309375,-0.055625
1.43,-0.416875,-0.055625
1.431,-0.4,-0.055
1.432,-0.3821875,-0.0546875
1.433,-0.365,-0.054375
1.434,-0.3503125,-0.0540625
1.435,-0.3396875,-0.05375
1.436,-0.3340625,-0.05375
1.437,-0.33375,-0.05375
1.438,-0.339375,-0.05375
1.439,-0.3496875,-0.05375
1.44,-0.364375,-0.054375
1.441,-0.3815625,-0.0546875
1.442,-0.399375,-0.055
1.443,-0.416875,-0.055625
1.444,-0.4315625,-0.0559375
1.445,-0.4421875,-0.05625
1.446,-0.4478125,-0.0565625
1.447,-0.4478125,-0.056875
1.448,-0.441875,-0.056875
1.449,-0.430625,-0.0565625
1.45,-0.4153125,-0.0565625
1.451,-0.396875,-0.0559375
1.452,-0.376875,-0.055625
1.453,-0.3578125,-0.0553125
1.454,-0.340625,-0.0546875
1.455,-0.3271875,-0.054375
1.456,-0.3190625,-0.0540625
1.457,-0.31625,-0.05375
1.458,-0.319375,-0.0534375
1.459,-0.3275,-0.0534375
1.46,-0.34,-0.0534375
1.461,-0.3553125,-0.05375
1.462,-0.3721875,-0.05375
1.463,-0.388125,-0.05375
1.464,-0.4025,-0.05375
1.465,-0.4134375,-0.05375
1.466,-0.4196875,-0.0534375
1.467,-0.420625,-0.053125
1.468,-0.41625,-0.0528125
1.469,-0.4075,-0.0525
1.47,-0.3946875,-0.051875
1.471,-0.3790625,-0.0509375
1.472,-0.3628125,-0.0503125
1.473,-0.3471875,-0.049375
1.474,-0.334375,-0.04875
1.475,-0.3253125,-0.0478125
1.476,-0.321875,-0.0475
1.477,-0.32375,-0.046875
1.478,-0.331875,-0.0465625
1.479,-0.345,-0.04625
1.48,-0.3625,-0.04625
1.481,-0.3828125,-0.0459375
1.482,-0.404375,-0.04625
1.483,-0.4259375,-0.04625
1.484,-0.445,-0.04625
1.485,-0.4603125,-0.04625
1.486,-0.47125,-0.0459375
1.487,-0.4765625,-0.0459375
1.488,-0.47625,-0.0459375
1.489,-0.4709375,-0.045625
1.49,-0.46125,-0.045
1.491,-0.4484375,-0.0446875
1.492,-0.434375,-0.044375
1.493,-0.420625,-0.04375
1.494,-0.4090625,-0.0434375
1.495,-0.40125,-0.043125
1.496,-0.3984375,-0.043125
1.497,-0.40125,-0.0428125
1.498,-0.409375,-0.0428125
1.499,-0.4225,-0.043125
1.5,-0.44,-0.043125
1.501,-0.4603125,-0.04375
1.502,-0.481875,-0.0440625
1.503,-0.5025,-0.044375
1.504,-0.52125,-0.0446875
1.505,-0.53625,-0.045
1.506,-0.5465625,-0.0453125
1.507,-0.5509375,-0.0453125
1.508,-0.5496875,-0.0453125
1.509,-0.543125,-0.0453125
1.51,-0.531875,-0.045
1.511,-0.5175,-0.0446875
1.512,-0.5015625,-0.044375
1.513,-0.4859375,-0.0440625
1.514,-0.4721875,-0.0434375
1.515,-0.461875,-0.0434375
1.516,-0.4565625,-0.043125
1.517,-0.4559375,-0.0428125
1.518,-0.46125,-0.0428125
1.519,-0.4715625,-0.043125
1.52,-0.4853125,-0.043125
1.521,-0.5021875,-0.043125
1.522,-0.52,-0.0434375
1.523,-0.5371875,-0.04375
1.524,-0.551875,-0.0440625
1.525,-0.5625,-0.0440625
1.526,-0.5684375,-0.044375
1.527,-0.5684375,-0.0440625
1.528,-0.5625,-0.0440625
1.529,-0.5509375,-0.0440625
1.53,-0.535,-0.0434375
1.531,-0.5159375,-0.043125
1.532,-0.495,-0.0428125
1.533,-0.474375,-0.0425
1.534,-0.4559375,-0.041875
1.535,-0.4409375,-0.0415625
1.536,-0.4309375,-0.04125
1.537,-0.4265625,-0.04125
1.538,-0.4278125,-0.04125
1.539,-0.4346875,-0.04125
1.54,-0.44625,-0.04125
1.541,-0.460625,-0.041875
1.542,-0.4771875,-0.041875
1.543,-0.4934375,-0.0425
1.544,-0.5078125,-0.0425
1.545,-0.5190625,-0.043125
1.546,-0.525625,-0.043125
1.547,-0.5271875,-0.0434375
1.548,-0.5234375,-0.0434375
1.549,-0.514375,-0.043125
1.55,-0.50125,-0.043125
1.551,-0.4853125,-0.0428125
1.552,-0.4678125,-0.0425
1.553,-0.450625,-0.0421875
1.554,-0.4353125,-0.041875
1.555,-0.42375,-0.0415625
1.556,-0.4171875,-0.0415625
1.557,-0.4159375,-0.0415625
1.558,-0.4203125,-0.0415625
1.559,-0.4296875,-0.0415625
1.56,-0.4434375,-0.041875
1.561,-0.4603125,-0.0421875
1.562,-0.478125,-0.0425
1.563,-0.495625,-0.0428125
1.564,-0.5109375,-0.043125
1.565,-0.5225,-0.0434375
1.566,-0.529375,-0.04375
1.567,-0.5303125,-0.04375
1.568,-0.5259375,-0.04375
1.569,-0.5159375,-0.04375
1.57,-0.50125,-0.0434375
1.571,-0.4834375,-0.043125
1.572,-0.46375,-0.043125
1.573,-0.4440625,-0.0428125
1.574,-0.42625,-0.0425
1.575,-0.4121875,-0.0421875
1.576,-0.4028125,-0.0421875
1.577,-0.3984375,-0.0421875
1.578,-0.4,-0.0421875
1.579,-0.4065625,-0.0425
1.58,-0.4175,-0.0428125
1.581,-0.4315625,-0.0434375
1.582,-0.4471875,-0.04375
1.583,-0.4625,-0.0440625
1.584,-0.47625,-0.0446875
1.585,-0.48625,-0.045
1.586,-0.4915625,-0.0453125
1.587,-0.4921875,-0.045625
1.588,-0.486875,-0.045625
1.589,-0.47625,-0.045625
1.59,-0.4615625,-0.045625
1.591,-0.4440625,-0.045625
1.592,-0.4246875,-0.045625
1.593,-0.405625,-0.0453125
1.594,-0.38875,-0.0453125
1.595,-0.375625,-0.0453125
1.596,-0.3671875,-0.0453125
1.597,-0.36375,-0.045625
1.598,-0.36625,-0.0459375
1.599,-0.3740625,-0.04625
1.6,-0.385625,-0.046875
1.601,-0.400625,-0.0471875
1.602,-0.416875,-0.048125
1.603,-0.4325,-0.0484375
1.604,-0.44625,-0.0490625
1.605,-0.45625,-0.05
1.606,-0.4615625,-0.0503125
1.607,-0.4609375,-0.050625
1.608,-0.4546875,-0.05125
1.609,-0.443125,-0.05125
1.61,-0.426875,-0.05125
1.611,-0.406875,-0.0515625
1.612,-0.3853125,-0.0515625
1.613,-0.36375,-0.05125
1.614,-0.3440625,-0.05125
1.615,-0.3275,-0.0515625
1.616,-0.315625,-0.0515625
1.617,-0.30875,-0.0515625
1.618,-0.3071875,-0.0515625
1.619,-0.3109375,-0.051875
1.62,-0.31875,-0.0525
1.621,-0.329375,-0.0528125
1.622,-0.34125,-0.053125
1.623,-0.3528125,-0.05375
1.624,-0.3621875,-0.0540625
1.625,-0.368125,-0.054375
1.626,-0.369375,-0.0546875
1.627,-0.365,-0.0546875
1.628,-0.3553125,-0.054375
1.629,-0.3403125,-0.054375
1.63,-0.320625,-0.0540625
1.631,-0.298125,-0.05375
1.632,-0.2740625,-0.0534375
1.633,-0.250625,-0.0528125
1.634,-0.229375,-0.0521875
1.635,-0.2115625,-0.051875
1.636,-0.1990625,-0.05125
1.637,-0.1921875,-0.0509375
1.638,-0.19125,-0.050625
1.639,-0.1965625,-0.050625
1.64,-0.20625,-0.0503125
1.641,-0.219375,-0.0503125
1.642,-0.2346875,-0.0503125
1.643,-0.2503125,-0.05
1.644,-0.2646875,-0.05
1.645,-0.2759375,-0.05
1.646,-0.2834375,-0.05
1.647,-0.285625,-0.0496875
1.648,-0.2828125,-0.0490625
1.649,-0.275625,-0.04875
1.65,-0.264375,-0.0484375
1.651,-0.250625,-0.0475
1.652,-0.235625,-0.046875
1.653,-0.22125,-0.0465625
1.654,-0.2090625,-0.045625
1.655,-0.200625,-0.0453125
1.656,-0.1975,-0.045
1.657,-0.2,-0.044375
1.658,-0.2084375,-0.044375
1.659,-0.221875,-0.0440625
1.66,-0.2403125,-0.0440625
1.661,-0.2621875,-0.044375
1.662,-0.2853125,-0.044375
1.663,-0.308125,-0.044375
1.664,-0.329375,-0.0446875
1.665,-0.3475,-0.0446875
1.666,-0.3609375,-0.045
1.667,-0.3690625,-0.045
1.668,-0.371875,-0.0446875
1.669,-0.369375,-0.0446875
1.67,-0.3621875,-0.0446875
1.671,-0.3521875,-0.0440625
1.672,-0.3403125,-0.0440625
1.673,-0.32875,-0.04375
1.674,-0.3190625,-0.0434375
1.675,-0.313125,-0.0434375
1.676,-0.311875,-0.043125
1.677,-0.31625,-0.043125
1.678,-0.3259375,-0.0434375
1.679,-0.3415625,-0.0434375
1.68,-0.3615625,-0.0440625
1.681,-0.385,-0.044375
1.682,-0.41,-0.0446875
1.683,-0.4353125,-0.0453125
1.684,-0.45875,-0.045625
1.685,-0.4790625,-0.04625
1.686,-0.495,-0.0465625
1.687,-0.505625,-0.046875
1.688,-0.5103125,-0.046875
1.689,-0.51,-0.046875
1.69,-0.505,-0.046875
1.691,-0.4965625,-0.046875
1.692,-0.48625,-0.0465625
1.693,-0.475625,-0.04625
1.694,-0.466875,-0.04625
1.695,-0.4609375,-0.04625
1.696,-0.4590625,-0.0459375
1.697,-0.4625,-0.0459375
1.698,-0.4709375,-0.04625
1.699,-0.4840625,-0.04625
1.7,-0.50125,-0.04625
1.701,-0.5209375,-0.046875
1.702,-0.5415625,-0.046875
1.703,-0.561875,-0.0471875
1.704,-0.579375,-0.0475
1.705,-0.593125,-0.0475
1.706,-0.601875,-0.0475
1.707,-0.6046875,-0.0475
1.708,-0.60125,-0.0475
1.709,-0.591875,-0.0471875
1.71,-0.5775,-0.046875
1.711,-0.5590625,-0.04625
1.712,-0.5384375,-0.0459375
1.713,-0.5171875,-0.045
1.714,-0.4978125,-0.044375
1.715,-0.480625,-0.0440625
1.716,-0.468125,-0.04375
1.717,-0.4603125,-0.043125
1.718,-0.458125,-0.0428125
1.719,-0.460625,-0.0425
1.72,-0.4675,-0.0425
1.721,-0.4775,-0.0421875
1.722,-0.4890625,-0.0421875
1.723,-0.5003125,-0.0421875
1.724,-0.51,-0.041875
1.725,-0.5165625,-0.041875
1.726,-0.51875,-0.0415625
1.727,-0.515625,-0.04125
1.728,-0.5075,-0.0409375
1.729,-0.49375,-0.0403125
1.73,-0.47625,-0.04
1.731,-0.455625,-0.039375
1.732,-0.4334375,-0.0384375
1.733,-0.4115625,-0.0375
1.734,-0.3915625,-0.0371875
1.735,-0.375625,-0.03625
1.736,-0.364375,-0.0359375
1.737,-0.35875,-0.0353125
1.738,-0.3590625,-0.035
1.739,-0.3646875,-0.0346875
1.74,-0.3746875,-0.0346875
1.741,-0.388125,-0.0346875
1.742,-0.4034375,-0.0346875
1.743,-0.41875,-0.0346875
1.744,-0.431875,-0.0346875
1.745,-0.441875,-0.035
1.746,-0.4475,-0.035
1.747,-0.4475,-0.0346875
1.748,-0.4421875,-0.0346875
1.749,-0.4315625,-0.0346875
1.75,-0.41625,-0.034375
1.751,-0.3978125,-0.0340625
1.752,-0.3775,-0.0340625
1.753,-0.3575,-0.0334375
1.754,-0.3396875,-0.0334375
1.755,-0.325,-0.033125
1.756,-0.3153125,-0.033125
1.757,-0.3109375,-0.033125
1.758,-0.3125,-0.033125
1.759,-0.3196875,-0.0334375
1.76,-0.331875,-0.03375
1.761,-0.3471875,-0.034375
1.762,-0.365,-0.0346875
1.763,-0.3828125,-0.035
1.764,-0.39875,-0.035625
1.765,-0.4125,-0.0359375
1.766,-0.42125,-0.03625
1.767,-0.425625,-0.036875
1.768,-0.424375,-0.036875
1.769,-0.418125,-0.036875
1.77,-0.4075,-0.0371875
1.771,-0.39375,-0.036875
1.772,-0.378125,-0.036875
1.773,-0.3628125,-0.036875
1.774,-0.349375,-0.0365625
1.775,-0.339375,-0.0365625
1.776,-0.3340625,-0.0365625
1.777,-0.3346875,-0.0365625
1.778,-0.3409375,-0.036875
1.779,-0.3525,-0.036875
1.78,-0.3690625,-0.0371875
1.781,-0.3890625,-0.0375
1.782,-0.4109375,-0.0378125
1.783,-0.4334375,-0.038125
1.784,-0.4540625,-0.0384375
1.785,-0.4715625,-0.0384375
1.786,-0.485,-0.03875
1.787,-0.493125,-0.0390625
1.788,-0.4959375,-0.0390625
1.789,-0.4934375,-0.03875
1.79,-0.48625,-0.03875
1.791,-0.4753125,-0.03875
1.792,-0.4625,-0.0384375
1.793,-0.449375,-0.0384375
1.794,-0.4375,-0.038125
1.795,-0.4284375,-0.0378125
1.796,-0.42375,-0.0378125
1.797,-0.4240625,-0.0378125
1.798,-0.4290625,-0.0378125
1.799,-0.439375,-0.038125
1.8,-0.4540625,-0.0384375
1.801,-0.47125,-0.03875
1.802,-0.49,-0.0390625
1.803,-0.508125,-0.0396875
1.804,-0.5246875,-0.04
1.805,-0.5371875,-0.0403125
1.806,-0.5453125,-0.040625
1.807,-0.5478125,-0.0409375
1.808,-0.5446875,-0.04125
1.809,-0.5353125,-0.04125
1.81,-0.52125,-0.04125
1.811,-0.5034375,-0.04125
1.812,-0.483125,-0.0409375
1.813,-0.4628125,-0.0409375
1.814,-0.4434375,-0.040625
1.815,-0.4271875,-0.040625
1.816,-0.4153125,-0.040625
1.817,-0.4084375,-0.0409375
1.818,-0.406875,-0.0409375
1.819,-0.410625,-0.0409375
1.82,-0.41875,-0.0415625
1.821,-0.4303125,-0.0415625
1.822,-0.44375,-0.041875
1.823,-0.4575,-0.0425
1.824,-0.469375,-0.0425
1.825,-0.4784375,-0.0428125
1.826,-0.483125,-0.0434375
1.827,-0.4825,-0.0434375
1.828,-0.4765625,-0.0434375
1.829,-0.4653125,-0.0434375
1.83,-0.4496875,-0.0434375
1.831,-0.4309375,-0.043125
1.832,-0.41,-0.043125
1.833,-0.3890625,-0.043125
1.834,-0.37,-0.0428125
1.835,-0.3540625,-0.0428125
1.836,-0.343125,-0.0428125
1.837,-0.3375,-0.0428125
1.838,-0.3378125,-0.0428125
1.839,-0.3434375,-0.043125
1.84,-0.3540625,-0.0434375
1.841,-0.3684375,-0.04375
1.842,-0.385,-0.0440625
1.843,-0.4021875,-0.0446875
1.844,-0.4178125,-0.045
1.845,-0.430625,-0.0453125
1.846,-0.439375,-0.0459375
1.847,-0.4434375,-0.0459375
1.848,-0.441875,-0.04625
1.849,-0.435,-0.0465625
1.85,-0.42375,-0.0465625
1.851,-0.4090625,-0.0465625
1.852,-0.3921875,-0.0465625
1.853,-0.375,-0.0465625
1.854,-0.3596875,-0.0465625
1.855,-0.3471875,-0.0465625
1.856,-0.3390625,-0.0465625
1.857,-0.336875,-0.046875
1.858,-0.3396875,-0.0471875
1.859,-0.3484375,-0.0475
1.86,-0.3615625,-0.0478125
1.861,-0.3784375,-0.0484375
1.862,-0.3971875,-0.04875
1.863,-0.4159375,-0.0490625
1.864,-0.4340625,-0.05
1.865,-0.4490625,-0.05
1.866,-0.4596875,-0.050625
1.867,-0.4653125,-0.0509375
1.868,-0.465625,-0.0509375
1.869,-0.4603125,-0.05125
1.87,-0.4503125,-0.05125
1.871,-0.4365625,-0.0509375
1.872,-0.42125,-0.0509375
1.873,-0.405,-0.0509375
1.874,-0.39,-0.050625
1.875,-0.378125,-0.050625
1.876,-0.3703125,-0.050625
1.877,-0.3675,-0.050625
1.878,-0.3696875,-0.050625
1.879,-0.376875,-0.0509375
1.88,-0.3884375,-0.05125
1.881,-0.403125,-0.0515625
1.882,-0.419375,-0.051875
1.883,-0.4353125,-0.0521875
1.884,-0.449375,-0.0525
1.885,-0.46,-0.0528125
1.886,-0.465625,-0.053125
1.887,-0.4659375,-0.0534375
1.888,-0.4603125,-0.0534375
1.889,-0.44875,-0.0534375
1.89,-0.4321875,-0.053125
1.891,-0.4115625,-0.053125
1.892,-0.3884375,-0.053125
1.893,-0.365,-0.0528125
1.894,-0.3425,-0.0525
1.895,-0.3228125,-0.0521875
1.896,-0.3078125,-0.0521875
1.897,-0.2975,-0.0521875
1.898,-0.2928125,-0.0521875
1.899,-0.2934375,-0.0521875
1.9,-0.29875,-0.0521875
1.901,-0.3078125,-0.0521875
1.902,-0.3190625,-0.0525
1.903,-0.330625,-0.0528125
1.904,-0.34125,-0.053125
1.905,-0.34875,-0.053125
1.906,-0.3528125,-0.053125
1.907,-0.351875,-0.053125
1.908,-0.3459375,-0.053125
1.909,-0.335,-0.0528125
1.91,-0.3196875,-0.0528125
1.911,-0.3015625,-0.0521875
1.912,-0.281875,-0.051875
1.913,-0.2621875,-0.0515625
1.914,-0.2446875,-0.0509375
1.915,-0.2309375,-0.0509375
1.916,-0.221875,-0.050625
1.917,-0.2190625,-0.05
1.918,-0.2221875,-0.05
1.919,-0.2315625,-0.05
1.92,-0.24625,-0.05
1.921,-0.265,-0.05
1.922,-0.28625,-0.05
1.923,-0.30875,-0.05
1.924,-0.33,-0.0503125
1.925,-0.3490625,-0.0503125
1.926,-0.3646875,-0.0503125
1.927,-0.3753125,-0.0503125
1.928,-0.38125,-0.0503125
1.929,-0.381875,-0.0503125
1.93,-0.378125,-0.0503125
1.931,-0.37125,-0.05
1.932,-0.3621875,-0.0496875
1.933,-0.3534375,-0.0496875
1.934,-0.345625,-0.0496875
1.935,-0.3409375,-0.049375
1.936,-0.3409375,-0.049375
1.937,-0.3459375,-0.049375
1.938,-0.35625,-0.0496875
1.939,-0.371875,-0.05
1.94,-0.3921875,-0.0503125
1.941,-0.415625,-0.050625
1.942,-0.4409375,-0.05125
1.943,-0.46625,-0.0515625
1.944,-0.4896875,-0.0521875
1.945,-0.51,-0.0525
1.946,-0.525625,-0.053125
1.947,-0.5359375,-0.053125
1.948,-0.5403125,-0.05375
1.949,-0.5384375,-0.05375
1.95,-0.5315625,-0.0540625
1.951,-0.520625,-0.0540625
1.952,-0.5075,-0.0540625
1.953,-0.4928125,-0.0540625
1.954,-0.4790625,-0.0540625
1.955,-0.468125,-0.0540625
1.956,-0.460625,-0.0540625
1.957,-0.458125,-0.054375
1.958,-0.460625,-0.054375
1.959,-0.4678125,-0.055
1.96,-0.4796875,-0.055
1.961,-0.494375,-0.055625
1.962,-0.5109375,-0.0559375
1.963,-0.5275,-0.05625
1.964,-0.5425,-0.056875
1.965,-0.5540625,-0.056875
1.966,-0.5615625,-0.0575
1.967,-0.5634375,-0.0575
1.968,-0.56,-0.0575
1.969,-0.550625,-0.0575
1.97,-0.5365625,-0.0575
1.971,-0.5190625,-0.0575
1.972,-0.4990625,-0.0571875
1.973,-0.47875,-0.056875
1.974,-0.4596875,-0.056875
1.975,-0.4434375,-0.0565625
1.976,-0.431875,-0.0565625
1.977,-0.425625,-0.0565625
1.978,-0.425,-0.05625
1.979,-0.4303125,-0.0565625
1.98,-0.4409375,-0.0565625
1.981,-0.455,-0.0565625
1.982,-0.4715625,-0.056875
1.983,-0.4890625,-0.056875
1.984,-0.505625,-0.056875
1.985,-0.519375,-0.0571875
1.986,-0.5296875,-0.0571875
1.987,-0.535,-0.0571875
1.988,-0.5346875,-0.056875
1.989,-0.529375,-0.056875
1.99,-0.519375,-0.0565625
1.991,-0.505625,-0.05625
1.992,-0.4896875,-0.055625
1.993,-0.473125,-0.0553125
1.994,-0.4575,-0.055
1.995,-0.4446875,-0.054375
1.996,-0.43625,-0.0540625
1.997,-0.4325,-0.05375
1.998,-0.434375,-0.0534375
1.999,-0.4415625,-0.0534375
2,-0.453125,-0.0534375
2.001,-0.468125,-0.0534375
2.002,-0.485625,-0.0534375
2.003,-0.503125,-0.0534375
2.004,-0.5190625,-0.0534375
2.005,-0.5325,-0.0534375
2.006,-0.5415625,-0.053125
2.007,-0.545625,-0.053125
2.008,-0.54375,-0.0528125
2.009,-0.5365625,-0.0528125
2.01,-0.524375,-0.0521875
2.011,-0.508125,-0.051875
2.012,-0.4896875,-0.0515625
2.013,-0.47,-0.0509375
2.014,-0.451875,-0.050625
2.015,-0.43625,-0.0503125
2.016,-0.425,-0.05
2.017,-0.4184375,-0.0496875
2.018,-0.4171875,-0.049375
2.019,-0.4215625,-0.049375
2.02,-0.4303125,-0.049375
2.021,-0.4428125,-0.049375
2.022,-0.4575,-0.049375
2.023,-0.4728125,-0.049375
2.024,-0.4871875,-0.0496875
2.025,-0.49875,-0.0496875
2.026,-0.50625,-0.0496875
2.027,-0.50875,-0.0496875
2.028,-0.505625,-0.049375
2.029,-0.4975,-0.049375
2.03,-0.4846875,-0.049375
2.031,-0.468125,-0.04875
2.032,-0.4496875,-0.04875
2.033,-0.43,-0.0484375
2.034,-0.411875,-0.048125
2.035,-0.396875,-0.0478125
2.036,-0.3859375,-0.0478125
2.037,-0.38,-0.0478125
2.038,-0.38,-0.0478125
2.039,-0.3853125,-0.0478125
2.04,-0.395625,-0.048125
2.041,-0.4096875,-0.0484375
2.042,-0.4259375,-0.04875
2.043,-0.4428125,-0.0490625
2.044,-0.45875,-0.049375
2.045,-0.471875,-0.0496875
2.046,-0.4809375,-0.05
2.047,-0.485,-0.0503125
2.048,-0.4840625,-0.050625
2.049,-0.4775,-0.050625
2.05,-0.4659375,-0.050625
2.051,-0.4509375,-0.050625
2.052,-0.43375,-0.050625
2.053,-0.415625,-0.050625
2.054,-0.39875,-0.050625
2.055,-0.385,-0.0509375
2.056,-0.3753125,-0.0509375
2.057,-0.3709375,-0.05125
2.058,-0.3721875,-0.05125
2.059,-0.37875,-0.0515625
2.06,-0.3903125,-0.051875
2.061,-0.405625,-0.0525
2.062,-0.423125,-0.0528125
2.063,-0.441875,-0.0534375
2.064,-0.459375,-0.05375
2.065,-0.4740625,-0.0540625
2.066,-0.485,-0.0546875
2.067,-0.4909375,-0.055
2.068,-0.4915625,-0.055
2.069,-0.486875,-0.0553125
2.07,-0.476875,-0.0553125
2.071,-0.463125,-0.0553125
2.072,-0.4471875,-0.0553125
2.073,-0.4303125,-0.055
2.074,-0.414375,-0.055
2.075,-0.4009375,-0.055
2.076,-0.3915625,-0.055
2.077,-0.3871875,-0.055
2.078,-0.3884375,-0.055
2.079,-0.3946875,-0.0553125
2.08,-0.4059375,-0.055625
2.081,-0.420625,-0.055625
2.082,-0.4371875,-0.05625
2.083,-0.4546875,-0.0565625
2.084,-0.470625,-0.0565625
2.085,-0.4840625,-0.056875
2.086,-0.493125,-0.0571875
2.087,-0.4971875,-0.0571875
2.088,-0.495625,-0.056875
2.089,-0.4884375,-0.056875
2.09,-0.4759375,-0.056875
2.091,-0.4596875,-0.0565625
2.092,-0.440625,-0.0559375
2.093,-0.420625,-0.055625
2.094,-0.401875,-0.055
2.095,-0.3853125,-0.0546875
2.096,-0.373125,-0.054375
2.097,-0.3659375,-0.05375
2.098,-0.3640625,-0.05375
2.099,-0.368125,-0.0534375
2.1,-0.376875,-0.0528125
2.101,-0.39,-0.0528125
2.102,-0.405625,-0.0525
2.103,-0.4221875,-0.0521875
2.104,-0.438125,-0.0521875
2.105,-0.4521875,-0.051875
2.106,-0.4628125,-0.05125
2.107,-0.46875,-0.0509375
2.108,-0.47,-0.050625
2.109,-0.4659375,-0.0496875
2.11,-0.4578125,-0.049375
2.111,-0.44625,-0.0484375
2.112,-0.4325,-0.0478125
2.113,-0.4184375,-0.046875
2.114,-0.405625,-0.04625
2.115,-0.3959375,-0.0453125
2.116,-0.390625,-0.045
2.117,-0.39125,-0.0440625
2.118,-0.3971875,-0.04375
2.119,-0.4090625,-0.043125
2.12,-0.4265625,-0.0428125
2.121,-0.4478125,-0.0425
2.122,-0.471875,-0.0421875
2.123,-0.4971875,-0.0421875
2.124,-0.5215625,-0.041875
2.125,-0.5434375,-0.041875
2.126,-0.5615625,-0.041875
2.127,-0.575,-0.0415625
2.128,-0.5828125,-0.0415625
2.129,-0.5846875,-0.04125
2.13,-0.581875,-0.0409375
2.131,-0.575,-0.0409375
2.132,-0.5646875,-0.0403125
2.133,-0.5534375,-0.04
2.134,-0.5425,-0.04
2.135,-0.5334375,-0.0396875
2.136,-0.5278125,-0.0396875
2.137,-0.526875,-0.0396875
2.138,-0.5303125,-0.0396875
2.139,-0.5390625,-0.0396875
2.14,-0.5515625,-0.0396875
2.141,-0.5675,-0.0403125
2.142,-0.5853125,-0.0403125
2.143,-0.6034375,-0.0409375
2.144,-0.6203125,-0.04125
2.145,-0.6340625,-0.0415625
2.146,-0.6434375,-0.041875
2.147,-0.6478125,-0.0425
2.148,-0.6459375,-0.0425
2.149,-0.63875,-0.0428125
2.15,-0.6265625,-0.0428125
2.151,-0.6096875,-0.043125
2.152,-0.5903125,-0.043125
2.153,-0.57,-0.043125
2.154,-0.550625,-0.043125
2.155,-0.5340625,-0.043125
2.156,-0.52125,-0.0434375
2.157,-0.51375,-0.0434375
2.158,-0.511875,-0.04375
2.159,-0.5159375,-0.0440625
2.16,-0.525,-0.044375
2.161,-0.538125,-0.045
2.162,-0.5540625,-0.045625
2.163,-0.5715625,-0.0459375
2.164,-0.588125,-0.04625
2.165,-0.6021875,-0.046875
2.166,-0.613125,-0.0471875
2.167,-0.61875,-0.0478125
2.168,-0.619375,-0.0478125
2.169,-0.614375,-0.0484375
2.17,-0.604375,-0.0484375
2.171,-0.5903125,-0.0484375
2.172,-0.5734375,-0.04875
2.173,-0.5559375,-0.04875
2.174,-0.53875,-0.04875
2.175,-0.5240625,-0.04875
2.176,-0.51375,-0.0490625
2.177,-0.5078125,-0.0490625
2.178,-0.5078125,-0.049375
2.179,-0.513125,-0.0496875
2.18,-0.5234375,-0.05
2.181,-0.538125,-0.050625
2.182,-0.555,-0.0509375
2.183,-0.573125,-0.0515625
2.184,-0.5903125,-0.0521875
2.185,-0.6053125,-0.0525
2.186,-0.61625,-0.0528125
2.187,-0.6228125,-0.0534375
2.188,-0.6234375,-0.0534375
2.189,-0.61875,-0.0540625
2.19,-0.60875,-0.0540625
2.191,-0.5946875,-0.0540625
2.192,-0.578125,-0.054375
2.193,-0.5603125,-0.054375
2.194,-0.543125,-0.054375
2.195,-0.5284375,-0.054375
2.196,-0.5178125,-0.0546875
2.197,-0.5121875,-0.0546875
2.198,-0.5121875,-0.0546875
2.199,-0.518125,-0.055
2.2,-0.5290625,-0.0553125
2.201,-0.5440625,-0.0553125
2.202,-0.561875,-0.0559375
2.203,-0.58125,-0.0559375
2.204,-0.5996875,-0.0565625
2.205,-0.61625,-0.0565625
2.206,-0.6290625,-0.0565625
2.207,-0.636875,-0.056875
2.208,-0.639375,-0.056875
2.209,-0.63625,-0.0565625
2.21,-0.628125,-0.05625
2.211,-0.6159375,-0.05625
2.212,-0.6003125,-0.0559375
2.213,-0.58375,-0.0553125
2.214,-0.5675,-0.0553125
2.215,-0.5534375,-0.0546875
2.216,-0.5428125,-0.054375
2.217,-0.536875,-0.0540625
2.218,-0.53625,-0.05375
2.219,-0.540625,-0.05375
2.22,-0.5503125,-0.05375
2.221,-0.56375,-0.0534375
2.222,-0.579375,-0.0534375
2.223,-0.5959375,-0.0534375
2.224,-0.611875,-0.0534375
2.225,-0.625625,-0.0534375
2.226,-0.6353125,-0.0534375
2.227,-0.640625,-0.053125
2.228,-0.6403125,-0.053125
2.229,-0.634375,-0.053125
2.23,-0.62375,-0.0525
2.231,-0.6090625,-0.0521875
2.232,-0.5915625,-0.0521875
2.233,-0.5728125,-0.051875
2.234,-0.5546875,-0.0515625
2.235,-0.53875,-0.05125
2.236,-0.52625,-0.05125
2.237,-0.5184375,-0.0509375
2.238,-0.5159375,-0.0509375
2.239,-0.518125,-0.05125
2.24,-0.5246875,-0.05125
2.241,-0.5346875,-0.05125
2.242,-0.546875,-0.0515625
2.243,-0.5590625,-0.051875
2.244,-0.57,-0.0521875
2.245,-0.578125,-0.0525
2.246,-0.5815625,-0.0528125
2.247,-0.58,-0.0528125
2.248,-0.5721875,-0.0528125
2.249,-0.5584375,-0.053125
2.25,-0.5390625,-0.053125
2.251,-0.515,-0.053125
2.252,-0.488125,-0.053125
2.253,-0.459375,-0.0528125
2.254,-0.430625,-0.0528125
2.255,-0.4040625,-0.0528125
2.256,-0.3809375,-0.0528125
2.257,-0.361875,-0.0528125
2.258,-0.3484375,-0.0528125
2.259,-0.339375,-0.053125
2.26,-0.335,-0.0534375
2.261,-0.334375,-0.0534375
2.262,-0.335625,-0.05375
2.263,-0.338125,-0.0540625
2.264,-0.3390625,-0.054375
2.265,-0.3375,-0.0546875
2.266,-0.3321875,-0.055
2.267,-0.3225,-0.0553125
2.268,-0.306875,-0.0553125
2.269,-0.28625,-0.0553125
2.27,-0.26125,-0.0553125
2.271,-0.2321875,-0.0553125
2.272,-0.2015625,-0.0553125
2.273,-0.1696875,-0.0553125
2.274,-0.139375,-0.055
2.275,-0.1121875,-0.055
2.276,-0.0890625,-0.055
2.277,-0.071875,-0.055
2.278,-0.0603125,-0.055
2.279,-0.055,-0.0553125
2.28,-0.0546875,-0.0553125
2.281,-0.059375,-0.0553125
2.282,-0.0665625,-0.055625
2.283,-0.0753125,-0.0559375
2.284,-0.08375,-0.05625
2.285,-0.09,-0.05625
2.286,-0.0928125,-0.0565625
2.287,-0.0909375,-0.0565625
2.288,-0.084375,-0.0565625
2.289,-0.0728125,-0.0565625
2.29,-0.0565625,-0.0565625
2.291,-0.036875,-0.05625
2.292,-0.0146875,-0.05625
2.293,0.0078125,-0.0559375
2.294,0.02875,-0.055625
2.295,0.0471875,-0.0553125
2.296,0.060625,-0.0553125
2.297,0.0690625,-0.055
2.298,0.0715625,-0.055
2.299,0.0678125,-0.055
2.3,0.05875,-0.055
2.301,0.0453125,-0.0553125
2.302,0.02875,-0.0553125
2.303,0.0109375,-0.0553125
2.304,-0.00625,-0.055625
2.305,-0.02125,-0.055625
2.306,-0.033125,-0.0559375
2.307,-0.04,-0.0559375
2.308,-0.0415625,-0.055625
2.309,-0.038125,-0.055625
2.31,-0.0296875,-0.055625
2.311,-0.0171875,-0.0553125
2.312,-0.0021875,-0.0553125
2.313,0.0140625,-0.055
2.314,0.029375,-0.0546875
2.315,0.041875,-0.054375
2.316,0.0509375,-0.054375
2.317,0.055,-0.054375
2.318,0.053125,-0.0540625
2.319,0.04625,-0.054375
2.32,0.03375,-0.054375
2.321,0.0171875,-0.054375
2.322,-0.001875,-0.0546875
2.323,-0.021875,-0.0546875
2.324,-0.0415625,-0.055
2.325,-0.0584375,-0.0553125
2.326,-0.071875,-0.055625
2.327,-0.0803125,-0.055625
2.328,-0.0834375,-0.055625
2.329,-0.0815625,-0.0559375
2.33,-0.074375,-0.0559375
2.331,-0.0634375,-0.0559375
2.332,-0.05,-0.055625
2.333,-0.035,-0.055625
2.334,-0.0215625,-0.055625
2.335,-0.01,-0.0553125
2.336,-0.0028125,-0.0553125
2.337,-0.000625,-0.0553125
2.338,-0.0040625,-0.0553125
2.339,-0.0134375,-0.055625
2.34,-0.0278125,-0.055625
2.341,-0.0465625,-0.055625
2.342,-0.0678125,-0.0559375
2.343,-0.0903125,-0.05625
2.344,-0.1121875,-0.0565625
2.345,-0.1315625,-0.0565625
2.346,-0.1475,-0.0565625
2.347,-0.15875,-0.0565625
2.348,-0.164375,-0.0565625
2.349,-0.1646875,-0.0565625
2.35,-0.16,-0.0565625
2.351,-0.1509375,-0.05625
2.352,-0.13875,-0.0559375
2.353,-0.125625,-0.055625
2.354,-0.1128125,-0.0553125
2.355,-0.1025,-0.055
2.356,-0.095625,-0.0546875
2.357,-0.093125,-0.0546875
2.358,-0.09625,-0.054375
2.359,-0.104375,-0.0540625
2.36,-0.1171875,-0.0540625
2.361,-0.13375,-0.05375
2.362,-0.1528125,-0.05375
2.363,-0.1728125,-0.05375
2.364,-0.191875,-0.05375
2.365,-0.2084375,-0.05375
2.366,-0.22125,-0.05375
2.367,-0.229375,-0.0534375
2.368,-0.2315625,-0.0534375
2.369,-0.2290625,-0.0534375
2.37,-0.2209375,-0.0528125
2.371,-0.209375,-0.0528125
2.372,-0.195,-0.0525
2.373,-0.1796875,-0.0521875
2.374,-0.1653125,-0.0521875
2.375,-0.1534375,-0.0515625
2.376,-0.145625,-0.0515625
2.377,-0.1428125,-0.0515625
2.378,-0.1459375,-0.0515625
2.379,-0.1546875,-0.0515625
2.38,-0.1684375,-0.0515625
2.381,-0.186875,-0.0515625
2.382,-0.2078125,-0.051875
2.383,-0.23,-0.0521875
2.384,-0.25125,-0.0525
2.385,-0.2703125,-0.0528125
2.386,-0.285625,-0.0528125
2.387,-0.2959375,-0.0528125
2.388,-0.3003125,-0.053125
2.389,-0.299375,-0.053125
2.39,-0.2928125,-0.053125
2.391,-0.281875,-0.053125
2.392,-0.268125,-0.0528125
2.393,-0.2528125,-0.0528125
2.394,-0.2375,-0.0528125
2.395,-0.2240625,-0.0525
2.396,-0.2140625,-0.0525
2.397,-0.20875,-0.0525
2.398,-0.2084375,-0.0525
2.399,-0.213125,-0.0525
2.4,-0.2225,-0.0528125
2.401,-0.2353125,-0.0528125
2.402,-0.250625,-0.0528125
2.403,-0.2665625,-0.053125
2.404,-0.28125,-0.0534375
2.405,-0.2934375,-0.05375
2.406,-0.30125,-0.05375
2.407,-0.30375,-0.05375
2.408,-0.300625,-0.05375
2.409,-0.291875,-0.05375
2.41,-0.2775,-0.05375
2.411,-0.25875,-0.0534375
2.412,-0.2371875,-0.0534375
2.413,-0.214375,-0.0534375
2.414,-0.1915625,-0.053125
2.415,-0.17125,-0.0528125
2.416,-0.155,-0.0525
2.417,-0.14375,-0.0525
2.418,-0.138125,-0.0525
2.419,-0.138125,-0.0525
2.42,-0.14375,-0.0525
2.421,-0.15375,-0.0525
2.422,-0.166875,-0.0528125
2.423,-0.1815625,-0.0528125
2.424,-0.1959375,-0.053125
2.425,-0.20875,-0.053125
2.426,-0.2178125,-0.053125
2.427,-0.223125,-0.0534375
2.428,-0.2228125,-0.0534375
2.429,-0.2171875,-0.0534375
2.43,-0.206875,-0.053125
2.431,-0.1925,-0.053125
2.432,-0.175625,-0.0528125
2.433,-0.1575,-0.0525
2.434,-0.1403125,-0.0525
2.435,-0.1253125,-0.0521875
2.436,-0.114375,-0.051875
2.437,-0.10875,-0.051875
2.438,-0.10875,-0.0515625
2.439,-0.1146875,-0.0515625
2.44,-0.1259375,-0.0515625
2.441,-0.141875,-0.0515625
2.442,-0.160625,-0.051875
2.443,-0.18125,-0.051875
2.444,-0.2015625,-0.051875
2.445,-0.2196875,-0.051875
2.446,-0.2346875,-0.051875
2.447,-0.2453125,-0.0521875
2.448,-0.2509375,-0.0521875
2.449,-0.2509375,-0.051875
2.45,-0.24625,-0.051875
2.451,-0.2371875,-0.051875
2.452,-0.225625,-0.0515625
2.453,-0.2125,-0.0515625
2.454,-0.2003125,-0.05125
2.455,-0.1903125,-0.0509375
2.456,-0.18375,-0.0509375
2.457,-0.1821875,-0.0509375
2.458,-0.1865625,-0.050625
2.459,-0.19625,-0.050625
2.46,-0.2115625,-0.0509375
2.461,-0.2309375,-0.0509375
2.462,-0.2534375,-0.0509375
2.463,-0.2771875,-0.0509375
2.464,-0.3009375,-0.05125
2.465,-0.3225,-0.05125
2.466,-0.3403125,-0.05125
2.467,-0.3534375,-0.05125
2.468,-0.3615625,-0.05125
2.469,-0.3634375,-0.0509375
2.47,-0.36,-0.0509375
2.471,-0.3521875,-0.050625
2.472,-0.3409375,-0.0503125
2.473,-0.3278125,-0.0503125
2.474,-0.314375,-0.0496875
2.475,-0.3028125,-0.0496875
2.476,-0.2940625,-0.049375
2.477,-0.29,-0.0490625
2.478,-0.2909375,-0.04875
2.479,-0.296875,-0.04875
2.48,-0.3078125,-0.04875
2.481,-0.3225,-0.04875
2.482,-0.3396875,-0.04875
2.483,-0.35875,-0.04875
2.484,-0.3765625,-0.04875
2.485,-0.3921875,-0.04875
2.486,-0.404375,-0.04875
2.487,-0.411875,-0.04875
2.488,-0.41375,-0.04875
2.489,-0.41,-0.0484375
2.49,-0.4009375,-0.0484375
2.491,-0.3871875,-0.0484375
2.492,-0.370625,-0.048125
2.493,-0.351875,-0.048125
2.494,-0.33375,-0.0478125
2.495,-0.3171875,-0.0478125
2.496,-0.3040625,-0.0478125
2.497,-0.2959375,-0.0478125
2.498,-0.2928125,-0.0478125
2.499,-0.2953125,-0.0478125
2.5,-0.303125,-0.048125
2.501,-0.3153125,-0.0484375
2.502,-0.330625,-0.04875
2.503,-0.3475,-0.0490625
2.504,-0.3640625,-0.0496875
2.505,-0.3790625,-0.0496875
2.506,-0.3909375,-0.0503125
2.507,-0.39875,-0.050625
2.508,-0.40125,-0.0509375
2.509,-0.398125,-0.05125
2.51,-0.39,-0.05125
2.511,-0.3778125,-0.05125
2.512,-0.3625,-0.0515625
2.513,-0.3459375,-0.0515625
2.514,-0.329375,-0.0515625
2.515,-0.3146875,-0.051875
2.516,-0.30375,-0.051875
2.517,-0.2975,-0.051875
2.518,-0.2965625,-0.0521875
2.519,-0.30125,-0.0521875
2.52,-0.31125,-0.0525
2.521,-0.3253125,-0.0528125
2.522,-0.3428125,-0.0528125
2.523,-0.3615625,-0.053125
2.524,-0.3796875,-0.05375
2.525,-0.3965625,-0.05375
2.526,-0.41,-0.05375
2.527,-0.41875,-0.0540625
2.528,-0.421875,-0.0540625
2.529,-0.42,-0.0540625
2.53,-0.4121875,-0.0540625
2.531,-0.400625,-0.0540625
2.532,-0.3853125,-0.05375
2.533,-0.3684375,-0.05375
2.534,-0.351875,-0.0534375
2.535,-0.336875,-0.053125
2.536,-0.3253125,-0.0528125
2.537,-0.318125,-0.0528125
2.538,-0.31625,-0.0528125
2.539,-0.3203125,-0.0525
2.54,-0.329375,-0.0525
2.541,-0.3425,-0.0525
2.542,-0.3590625,-0.0525
2.543,-0.3771875,-0.0525
2.544,-0.395,-0.0525
2.545,-0.41125,-0.0525
2.546,-0.424375,-0.0525
2.547,-0.433125,-0.0525
2.548,-0.4371875,-0.0525
2.549,-0.4353125,-0.0525
2.55,-0.42875,-0.0521875
2.551,-0.418125,-0.051875
2.552,-0.404375,-0.051875
2.553,-0.389375,-0.0515625
2.554,-0.3746875,-0.05125
2.555,-0.361875,-0.05125
2.556,-0.3528125,-0.0509375
2.557,-0.3484375,-0.050625
2.558,-0.35,-0.050625
2.559,-0.356875,-0.050625
2.56,-0.369375,-0.050625
2.561,-0.3865625,-0.050625
2.562,-0.406875,-0.050625
2.563,-0.4290625,-0.0509375
2.564,-0.45125,-0.0509375
2.565,-0.471875,-0.05125
2.566,-0.4890625,-0.05125
2.567,-0.5021875,-0.0515625
2.568,-0.51,-0.0515625
2.569,-0.5121875,-0.0515625
2.57,-0.509375,-0.0515625
2.571,-0.5021875,-0.0515625
2.572,-0.4915625,-0.0515625
2.573,-0.4790625,-0.0515625
2.574,-0.46625,-0.0515625
2.575,-0.4553125,-0.0515625
2.576,-0.4475,-0.0515625
2.577,-0.443125,-0.0515625
2.578,-0.444375,-0.0515625
2.579,-0.4503125,-0.0515625
2.58,-0.46125,-0.051875
2.581,-0.4759375,-0.051875
2.582,-0.4934375,-0.0521875
2.583,-0.511875,-0.0528125
2.584,-0.53,-0.0528125
2.585,-0.54625,-0.0534375
2.586,-0.55875,-0.05375
2.587,-0.56625,-0.05375
2.588,-0.56875,-0.054375
2.589,-0.565625,-0.054375
2.59,-0.5571875,-0.054375
2.591,-0.5440625,-0.0546875
2.592,-0.5278125,-0.0546875
2.593,-0.51,-0.0546875
2.594,-0.491875,-0.0546875
2.595,-0.475625,-0.0546875
2.596,-0.4628125,-0.0546875
2.597,-0.4540625,-0.0546875
2.598,-0.4509375,-0.0546875
2.599,-0.453125,-0.0546875
2.6,-0.4603125,-0.055
2.601,-0.4721875,-0.055
2.602,-0.4865625,-0.0553125
2.603,-0.5028125,-0.0553125
2.604,-0.51875,-0.0553125
2.605,-0.5328125,-0.055625
2.606,-0.5434375,-0.055625
2.607,-0.5496875,-0.055625
2.608,-0.550625,-0.055625
2.609,-0.5459375,-0.055625
2.61,-0.5359375,-0.0553125
2.611,-0.52125,-0.0553125
2.612,-0.503125,-0.0546875
2.613,-0.4834375,-0.054375
2.614,-0.463125,-0.0540625
2.615,-0.445,-0.05375
2.616,-0.4296875,-0.053125
2.617,-0.4190625,-0.0528125
2.618,-0.4134375,-0.0525
2.619,-0.413125,-0.0521875
2.62,-0.418125,-0.051875
2.621,-0.4275,-0.0515625
2.622,-0.4396875,-0.05125
2.623,-0.45375,-0.05125
2.624,-0.4678125,-0.0509375
2.625,-0.48,-0.050625
2.626,-0.489375,-0.0503125
2.627,-0.494375,-0.0503125
2.628,-0.494375,-0.05
2.629,-0.4890625,-0.0496875
2.63,-0.47875,-0.049375
2.631,-0.464375,-0.0490625
2.632,-0.4465625,-0.04875
2.633,-0.4278125,-0.0484375
2.634,-0.4090625,-0.048125
2.635,-0.3925,-0.0478125
2.636,-0.3796875,-0.0475
2.637,-0.371875,-0.0475
2.638,-0.3696875,-0.0471875
2.639,-0.37375,-0.0471875
2.64,-0.38375,-0.0471875
2.641,-0.39875,-0.0471875
2.642,-0.4175,-0.0475
2.643,-0.4384375,-0.0475
2.644,-0.4603125,-0.0478125
2.645,-0.4809375,-0.048125
2.646,-0.4990625,-0.048125
2.647,-0.513125,-0.0484375
2.648,-0.5228125,-0.0484375
2.649,-0.5271875,-0.0484375
2.65,-0.5265625,-0.04875
2.651,-0.5215625,-0.04875
2.652,-0.5134375,-0.0484375
2.653,-0.5034375,-0.0484375
2.654,-0.493125,-0.0484375
2.655,-0.484375,-0.0484375
2.656,-0.4790625,-0.048125
2.657,-0.4778125,-0.048125
2.658,-0.481875,-0.048125
2.659,-0.49125,-0.048125
2.66,-0.505625,-0.048125
2.661,-0.524375,-0.048125
2.662,-0.54625,-0.0484375
2.663,-0.5703125,-0.0484375
2.664,-0.5940625,-0.0484375
2.665,-0.6159375,-0.04875
2.666,-0.635,-0.04875
2.667,-0.6496875,-0.04875
2.668,-0.659375,-0.04875
2.669,-0.6634375,-0.04875
2.67,-0.6625,-0.04875
2.671,-0.6565625,-0.0484375
2.672,-0.646875,-0.0484375
2.673,-0.6353125,-0.0484375
2.674,-0.62375,-0.048125
2.675,-0.613125,-0.048125
2.676,-0.6053125,-0.048125
2.677,-0.601875,-0.0478125
2.678,-0.6034375,-0.048125
2.679,-0.6103125,-0.048125
2.68,-0.6221875,-0.048125
2.681,-0.638125,-0.0484375
2.682,-0.6575,-0.0484375
2.683,-0.67875,-0.04875
2.684,-0.7003125,-0.049375
2.685,-0.72,-0.049375
2.686,-0.7365625,-0.05
2.687,-0.7490625,-0.05
2.688,-0.75625,-0.050625
2.689,-0.7578125,-0.050625
2.69,-0.75375,-0.0509375
2.691,-0.7453125,-0.05125
2.692,-0.733125,-0.05125
2.693,-0.7184375,-0.0515625
2.694,-0.7034375,-0.0515625
2.695,-0.689375,-0.051875
2.696,-0.6778125,-0.051875
2.697,-0.670625,-0.051875
2.698,-0.6678125,-0.0521875
2.699,-0.67,-0.0525
2.7,-0.6771875,-0.0528125
2.701,-0.6884375,-0.0528125
2.702,-0.7028125,-0.0534375
2.703,-0.7184375,-0.05375
2.704,-0.7340625,-0.05375
2.705,-0.7478125,-0.054375
2.706,-0.758125,-0.054375
2.707,-0.7640625,-0.0546875
2.708,-0.7646875,-0.055
2.709,-0.759375,-0.055
2.71,-0.7484375,-0.0553125
2.711,-0.7328125,-0.0553125
2.712,-0.713125,-0.0553125
2.713,-0.6909375,-0.0553125
2.714,-0.6684375,-0.0553125
2.715,-0.646875,-0.0553125
2.716,-0.628125,-0.0553125
2.717,-0.61375,-0.0553125
2.718,-0.60375,-0.055625
2.719,-0.599375,-0.055625
2.72,-0.6003125,-0.055625
2.721,-0.6053125,-0.0559375
2.722,-0.61375,-0.05625
2.723,-0.6240625,-0.05625
2.724,-0.6346875,-0.05625
2.725,-0.6440625,-0.056875
2.726,-0.65,-0.056875
2.727,-0.6521875,-0.056875
2.728,-0.649375,-0.0571875
2.729,-0.6409375,-0.0571875
2.73,-0.6275,-0.0575
2.731,-0.6090625,-0.0575
2.732,-0.5871875,-0.0575
2.733,-0.56375,-0.0575
2.734,-0.539375,-0.0575
2.735,-0.516875,-0.0575
2.736,-0.4971875,-0.0575
2.737,-0.4825,-0.0575
2.738,-0.4728125,-0.0578125
2.739,-0.46875,-0.058125
2.74,-0.4703125,-0.0584375
2.741,-0.4765625,-0.0584375
2.742,-0.486875,-0.0590625
2.743,-0.499375,-0.059375
2.744,-0.5125,-0.0596875
2.745,-0.524375,-0.06
2.746,-0.5334375,-0.060625
2.747,-0.5390625,-0.0609375
2.748,-0.5396875,-0.06125
2.749,-0.5353125,-0.0615625
2.75,-0.525625,-0.061875
2.751,-0.5115625,-0.0621875
2.752,-0.4940625,-0.0621875
2.753,-0.4746875,-0.0625
2.754,-0.455,-0.0628125
2.755,-0.4371875,-0.063125
2.756,-0.4221875,-0.063125
2.757,-0.4115625,-0.0634375
2.758,-0.40625,-0.06375
2.759,-0.4065625,-0.0640625
2.76,-0.4125,-0.064375
2.761,-0.423125,-0.0646875
2.762,-0.4371875,-0.0653125
2.763,-0.45375,-0.065625
2.764,-0.4703125,-0.0659375
2.765,-0.4859375,-0.0665625
2.766,-0.4990625,-0.066875
2.767,-0.5078125,-0.0671875
2.768,-0.511875,-0.0675
2.769,-0.5103125,-0.0678125
2.77,-0.50375,-0.068125
2.771,-0.4928125,-0.068125
2.772,-0.478125,-0.068125
2.773,-0.46125,-0.068125
2.774,-0.4440625,-0.068125
2.775,-0.4284375,-0.068125
2.776,-0.415625,-0.068125
2.777,-0.4071875,-0.068125
2.778,-0.40375,-0.0684375
2.779,-0.4059375,-0.0684375
2.78,-0.413125,-0.0684375
2.781,-0.4253125,-0.0684375
2.782,-0.4409375,-0.0684375
2.783,-0.45875,-0.06875
2.784,-0.4765625,-0.06875
2.785,-0.493125,-0.06875
2.786,-0.506875,-0.06875
2.787,-0.5165625,-0.06875
2.788,-0.52125,-0.06875
2.789,-0.520625,-0.06875
2.79,-0.5146875,-0.0684375
2.791,-0.50375,-0.068125
2.792,-0.489375,-0.068125
2.793,-0.4728125,-0.0675
2.794,-0.4559375,-0.0671875
2.795,-0.44,-0.066875
2.796,-0.4271875,-0.0665625
2.797,-0.4184375,-0.06625
2.798,-0.415,-0.0659375
2.799,-0.416875,-0.065625
2.8,-0.42375,-0.0653125
2.801,-0.435,-0.065
2.802,-0.45,-0.065
2.803,-0.466875,-0.0646875
2.804,-0.4840625,-0.064375
2.805,-0.5,-0.0640625
2.806,-0.5134375,-0.0640625
2.807,-0.5225,-0.06375
2.808,-0.5271875,-0.0634375
2.809,-0.5265625,-0.063125
2.81,-0.5209375,-0.0628125
2.811,-0.5109375,-0.0625
2.812,-0.4978125,-0.061875
2.813,-0.4828125,-0.0615625
2.814,-0.4678125,-0.06125
2.815,-0.454375,-0.060625
2.816,-0.4440625,-0.0603125
2.817,-0.4384375,-0.06
2.818,-0.4378125,-0.0596875
2.819,-0.4434375,-0.059375
2.82,-0.454375,-0.0590625
2.821,-0.47,-0.0590625
2.822,-0.4896875,-0.0590625
2.823,-0.51125,-0.05875
2.824,-0.53375,-0.05875
2.825,-0.5546875,-0.05875
2.826,-0.5734375,-0.05875
2.827,-0.588125,-0.05875
2.828,-0.5978125,-0.0584375
2.829,-0.6028125,-0.0584375
2.83,-0.6021875,-0.0584375
2.831,-0.596875,-0.058125
2.832,-0.5884375,-0.058125
2.833,-0.5775,-0.0578125
2.834,-0.5665625,-0.0575
2.835,-0.5565625,-0.0575
2.836,-0.5490625,-0.0575
2.837,-0.5459375,-0.0571875
2.838,-0.5475,-0.0571875
2.839,-0.5540625,-0.0575
2.84,-0.565625,-0.0575
2.841,-0.5815625,-0.0575
2.842,-0.6003125,-0.0578125
2.843,-0.6209375,-0.0578125
2.844,-0.64125,-0.058125
2.845,-0.66,-0.05875
2.846,-0.675625,-0.05875
2.847,-0.686875,-0.059375
2.848,-0.6928125,-0.059375
2.849,-0.6934375,-0.06
2.85,-0.6884375,-0.06
2.851,-0.678125,-0.0603125
2.852,-0.664375,-0.060625
2.853,-0.6484375,-0.060625
2.854,-0.631875,-0.0609375
2.855,-0.61625,-0.06125
2.856,-0.6034375,-0.06125
2.857,-0.5946875,-0.0615625
2.858,-0.5909375,-0.0621875
2.859,-0.5921875,-0.0621875
2.86,-0.5984375,-0.0628125
2.861,-0.609375,-0.063125
2.862,-0.623125,-0.0634375
2.863,-0.63875,-0.06375
2.864,-0.654375,-0.064375
2.865,-0.6684375,-0.0646875
2.866,-0.679375,-0.065
2.867,-0.6859375,-0.0653125
2.868,-0.686875,-0.065625
2.869,-0.6825,-0.0659375
2.87,-0.671875,-0.0659375
2.871,-0.65625,-0.0659375
2.872,-0.636875,-0.0659375
2.873,-0.6146875,-0.0659375
2.874,-0.5915625,-0.0659375
2.875,-0.5696875,-0.0659375
2.876,-0.55,-0.0659375
2.877,-0.534375,-0.0659375
2.878,-0.52375,-0.0659375
2.879,-0.518125,-0.0659375
2.88,-0.518125,-0.0659375
2.881,-0.5225,-0.0659375
2.882,-0.5303125,-0.0659375
2.883,-0.54,-0.06625
2.884,-0.550625,-0.06625
2.885,-0.5596875,-0.06625
2.886,-0.56625,-0.06625
2.887,-0.56875,-0.06625
2.888,-0.56625,-0.0665625
2.889,-0.558125,-0.0665625
2.89,-0.545,-0.06625
2.891,-0.5271875,-0.06625
2.892,-0.5059375,-0.06625
2.893,-0.4825,-0.06625
2.894,-0.45875,-0.06625
2.895,-0.43625,-0.06625
2.896,-0.416875,-0.06625
2.897,-0.4021875,-0.06625
2.898,-0.3928125,-0.06625
2.899,-0.389375,-0.0665625
2.9,-0.3915625,-0.0665625
2.901,-0.399375,-0.066875
2.902,-0.4109375,-0.066875
2.903,-0.425,-0.0675
2.904,-0.4403125,-0.0675
2.905,-0.4546875,-0.0678125
2.906,-0.466875,-0.068125
2.907,-0.475,-0.068125
2.908,-0.4784375,-0.0684375
2.909,-0.476875,-0.0684375
2.91,-0.47,-0.0684375
2.911,-0.4578125,-0.0684375
2.912,-0.4425,-0.0684375
2.913,-0.424375,-0.0684375
2.914,-0.405625,-0.0684375
2.915,-0.3878125,-0.068125
2.916,-0.3725,-0.068125
2.917,-0.36125,-0.068125
2.918,-0.3553125,-0.0678125
2.919,-0.354375,-0.0678125
2.92,-0.3590625,-0.0678125
2.921,-0.3684375,-0.0678125
2.922,-0.38125,-0.0678125
2.923,-0.3965625,-0.0678125
2.924,-0.4128125,-0.0678125
2.925,-0.4275,-0.0675
2.926,-0.4396875,-0.0675
2.927,-0.448125,-0.0675
2.928,-0.4515625,-0.0675
2.929,-0.449375,-0.0675
2.93,-0.4421875,-0.0675
2.931,-0.429375,-0.0671875
2.932,-0.413125,-0.066875
2.933,-0.3946875,-0.0665625
2.934,-0.375,-0.0665625
2.935,-0.3565625,-0.06625
2.936,-0.340625,-0.06625
2.937,-0.3284375,-0.06625
2.938,-0.3215625,-0.0659375
2.939,-0.3203125,-0.0659375
2.94,-0.324375,-0.06625
2.941,-0.3334375,-0.06625
2.942,-0.3465625,-0.06625
2.943,-0.361875,-0.0665625
2.944,-0.378125,-0.066875
2.945,-0.39375,-0.066875
2.946,-0.4071875,-0.0675
2.947,-0.4165625,-0.0678125
2.948,-0.4215625,-0.0678125
2.949,-0.42125,-0.0684375
2.95,-0.415625,-0.06875
2.951,-0.405625,-0.06875
2.952,-0.391875,-0.0690625
2.953,-0.3759375,-0.069375
2.954,-0.3590625,-0.069375
2.955,-0.3434375,-0.0696875
2.956,-0.3309375,-0.07
2.957,-0.3225,-0.07
2.958,-0.319375,-0.0703125
2.959,-0.321875,-0.070625
2.96,-0.3303125,-0.0709375
2.961,-0.3440625,-0.07125
2.962,-0.361875,-0.0715625
2.963,-0.3825,-0.071875
2.964,-0.404375,-0.0721875
2.965,-0.4253125,-0.0725
2.966,-0.4440625,-0.0728125
2.967,-0.4596875,-0.073125
2.968,-0.470625,-0.0734375
2.969,-0.47625,-0.0734375
2.97,-0.476875,-0.07375
2.971,-0.4725,-0.07375
2.972,-0.464375,-0.07375
2.973,-0.4534375,-0.07375
2.974,-0.4415625,-0.07375
2.975,-0.430625,-0.0734375
2.976,-0.421875,-0.0734375
2.977,-0.4171875,-0.0734375
2.978,-0.4171875,-0.073125
2.979,-0.4221875,-0.073125
2.98,-0.4328125,-0.073125
2.981,-0.4478125,-0.0728125
2.982,-0.4665625,-0.0728125
2.983,-0.4871875,-0.0728125
2.984,-0.5084375,-0.0725
2.985,-0.52875,-0.0725
2.986,-0.54625,-0.0725
2.987,-0.559375,-0.0721875
2.988,-0.5675,-0.071875
2.989,-0.5696875,-0.071875
2.99,-0.565625,-0.0715625
2.991,-0.556875,-0.07125
2.992,-0.543125,-0.0709375
2.993,-0.52625,-0.070625
2.994,-0.508125,-0.07
2.995,-0.49,-0.0696875
2.996,-0.4740625,-0.069375
2.997,-0.4615625,-0.0690625
2.998,-0.45375,-0.0684375
2.999,-0.4509375,-0.068125
3,-0.4534375,-0.0678125
3.001,-0.460625,-0.0675
3.002,-0.4715625,-0.0671875
3.003,-0.485,-0.0671875
3.004,-0.4990625,-0.0665625
3.005,-0.5125,-0.0665625
3.006,-0.5234375,-0.06625
3.007,-0.530625,-0.0659375
3.008,-0.533125,-0.065625
3.009,-0.5303125,-0.0653125
3.01,-0.521875,-0.065
3.011,-0.5084375,-0.064375
3.012,-0.4909375,-0.0640625
3.013,-0.47125,-0.0634375
3.014,-0.45,-0.063125
3.015,-0.4296875,-0.0628125
3.016,-0.4115625,-0.0621875
3.017,-0.3975,-0.0615625
3.018,-0.3884375,-0.06125
3.019,-0.3846875,-0.0609375
3.02,-0.3865625,-0.0603125
3.021,-0.3934375,-0.06
3.022,-0.404375,-0.0596875
3.023,-0.4178125,-0.059375
3.024,-0.4325,-0.059375
3.025,-0.4465625,-0.0590625
3.026,-0.4584375,-0.0584375
3.027,-0.466875,-0.0584375
3.028,-0.4709375,-0.058125
3.029,-0.4696875,-0.0578125
3.03,-0.463125,-0.0575
3.031,-0.451875,-0.0571875
3.032,-0.436875,-0.0565625
3.033,-0.4196875,-0.05625
3.034,-0.40125,-0.0559375
3.035,-0.38375,-0.055625
3.036,-0.3690625,-0.0553125
3.037,-0.3584375,-0.055
3.038,-0.3528125,-0.0546875
3.039,-0.353125,-0.054375
3.04,-0.3590625,-0.0540625
3.041,-0.3703125,-0.0540625
3.042,-0.3859375,-0.0540625
3.043,-0.404375,-0.0540625
3.044,-0.424375,-0.0540625
3.045,-0.444375,-0.0540625
3.046,-0.4621875,-0.0540625
3.047,-0.4765625,-0.0540625
3.048,-0.486875,-0.0540625
3.049,-0.4925,-0.0540625
3.05,-0.4928125,-0.0540625
3.051,-0.488125,-0.0540625
3.052,-0.48,-0.0540625
3.053,-0.469375,-0.0540625
3.054,-0.4578125,-0.05375
3.055,-0.446875,-0.0540625
3.056,-0.438125,-0.0540625
3.057,-0.4334375,-0.0540625
3.058,-0.4334375,-0.0540625
3.059,-0.4390625,-0.0540625
3.06,-0.45,-0.054375
3.061,-0.465625,-0.0546875
3.062,-0.485625,-0.0546875
3.063,-0.5078125,-0.0553125
3.064,-0.5309375,-0.0553125
3.065,-0.55375,-0.0559375
3.066,-0.574375,-0.05625
3.067,-0.5915625,-0.0565625
3.068,-0.6040625,-0.056875
3.069,-0.61125,-0.0575
3.07,-0.613125,-0.0575
3.071,-0.6103125,-0.0578125
3.072,-0.60375,-0.0584375
3.073,-0.594375,-0.05875
3.074,-0.58375,-0.0590625
3.075,-0.5740625,-0.059375
3.076,-0.5665625,-0.0596875
3.077,-0.5625,-0.06
3.078,-0.5634375,-0.0603125
3.079,-0.5696875,-0.0609375
3.08,-0.58125,-0.06125
3.081,-0.5975,-0.0615625
3.082,-0.6178125,-0.0621875
3.083,-0.640625,-0.0625
3.084,-0.664375,-0.063125
3.085,-0.6878125,-0.0634375
3.086,-0.70875,-0.0640625
3.087,-0.7259375,-0.064375
3.088,-0.7390625,-0.0646875
3.089,-0.746875,-0.065
3.09,-0.74875,-0.0653125
3.091,-0.7459375,-0.065625
3.092,-0.7390625,-0.0659375
3.093,-0.7290625,-0.0659375
3.094,-0.7178125,-0.0659375
3.095,-0.7065625,-0.06625
3.096,-0.6975,-0.06625
3.097,-0.6915625,-0.0665625
3.098,-0.6896875,-0.0665625
3.099,-0.6921875,-0.0665625
3.1,-0.699375,-0.066875
3.101,-0.710625,-0.066875
3.102,-0.7246875,-0.066875
3.103,-0.740625,-0.0671875
3.104,-0.756875,-0.0671875
3.105,-0.77125,-0.0675
3.106,-0.7825,-0.0675
3.107,-0.789375,-0.0675
3.108,-0.7909375,-0.0675
3.109,-0.7865625,-0.0675
3.11,-0.77625,-0.0675
3.111,-0.760625,-0.0671875
3.112,-0.7403125,-0.0671875
3.113,-0.7171875,-0.0671875
3.114,-0.6921875,-0.066875
3.115,-0.6678125,-0.066875
3.116,-0.6453125,-0.066875
3.117,-0.6259375,-0.0665625
3.118,-0.61125,-0.0665625
3.119,-0.60125,-0.0665625
3.12,-0.5965625,-0.06625
3.121,-0.5959375,-0.06625
3.122,-0.599375,-0.06625
3.123,-0.605,-0.06625
3.124,-0.6109375,-0.06625
3.125,-0.61625,-0.06625
3.126,-0.6190625,-0.06625
3.127,-0.6178125,-0.0659375
3.128,-0.6121875,-0.0659375
3.129,-0.6009375,-0.0659375
3.13,-0.5846875,-0.065625
3.131,-0.56375,-0.0653125
3.132,-0.53875,-0.065
3.133,-0.5115625,-0.0646875
3.134,-0.4834375,-0.064375
3.135,-0.45625,-0.06375
3.136,-0.4315625,-0.06375
3.137,-0.4109375,-0.063125
3.138,-0.3953125,-0.063125
3.139,-0.3853125,-0.0625
3.14,-0.380625,-0.0625
3.141,-0.38125,-0.0621875
3.142,-0.385625,-0.061875
3.143,-0.3925,-0.061875
3.144,-0.400625,-0.0615625
3.145,-0.4075,-0.06125
3.146,-0.4121875,-0.06125
3.147,-0.4128125,-0.0609375
3.148,-0.40875,-0.0609375
3.149,-0.3996875,-0.060625
3.15,-0.385,-0.0603125
3.151,-0.3653125,-0.0603125
3.152,-0.341875,-0.0596875
3.153,-0.3159375,-0.0596875
3.154,-0.2884375,-0.059375
3.155,-0.2625,-0.0590625
3.156,-0.2390625,-0.05875
3.157,-0.219375,-0.05875
3.158,-0.205,-0.05875
3.159,-0.1959375,-0.0584375
3.16,-0.1928125,-0.0584375
3.161,-0.1946875,-0.0584375
3.162,-0.2009375,-0.058125
3.163,-0.209375,-0.058125
3.164,-0.219375,-0.058125
3.165,-0.2284375,-0.058125
3.166,-0.235625,-0.058125
3.167,-0.2390625,-0.0578125
3.168,-0.238125,-0.0578125
3.169,-0.2315625,-0.0578125
3.17,-0.22,-0.0575
3.171,-0.20375,-0.0575
3.172,-0.1834375,-0.0571875
3.173,-0.16125,-0.0571875
3.174,-0.1375,-0.056875
3.175,-0.1153125,-0.056875
3.176,-0.0959375,-0.056875
3.177,-0.0803125,-0.056875
3.178,-0.0703125,-0.056875
3.179,-0.06625,-0.056875
3.18,-0.068125,-0.056875
3.181,-0.0759375,-0.0571875
3.182,-0.0878125,-0.0571875
3.183,-0.1028125,-0.0575
3.184,-0.119375,-0.058125
3.185,-0.1359375,-0.058125
3.186,-0.150625,-0.0584375
3.187,-0.161875,-0.0590625
3.188,-0.16875,-0.0590625
3.189,-0.1709375,-0.0596875
3.19,-0.1678125,-0.06
3.191,-0.16,-0.0603125
3.192,-0.14875,-0.060625
3.193,-0.1346875,-0.0609375
3.194,-0.1196875,-0.06125
3.195,-0.1053125,-0.061875
3.196,-0.09375,-0.0621875
3.197,-0.0859375,-0.0628125
3.198,-0.0834375,-0.063125
3.199,-0.0865625,-0.0634375
3.2,-0.095,-0.0640625
3.201,-0.10875,-0.065
3.202,-0.1265625,-0.0653125
3.203,-0.1471875,-0.0659375
3.204,-0.16875,-0.06625
3.205,-0.1896875,-0.066875
3.206,-0.2084375,-0.0675
3.207,-0.2234375,-0.0678125
3.208,-0.23375,-0.068125
3.209,-0.2384375,-0.0684375
3.21,-0.2375,-0.06875
3.211,-0.2309375,-0.0690625
3.212,-0.2203125,-0.0690625
3.213,-0.2065625,-0.0690625
3.214,-0.1915625,-0.0690625
3.215,-0.1765625,-0.0690625
3.216,-0.1634375,-0.06875
3.217,-0.15375,-0.06875
3.218,-0.14875,-0.0684375
3.219,-0.14875,-0.0684375
3.22,-0.1540625,-0.0684375
3.221,-0.164375,-0.068125
3.222,-0.1784375,-0.068125
3.223,-0.195,-0.0678125
3.224,-0.2125,-0.0675
3.225,-0.2296875,-0.0671875
3.226,-0.244375,-0.066875
3.227,-0.2553125,-0.0665625
3.228,-0.261875,-0.06625
3.229,-0.2628125,-0.065625
3.23,-0.2584375,-0.0653125
3.231,-0.24875,-0.065
3.232,-0.235,-0.0640625
3.233,-0.21875,-0.06375
3.234,-0.2009375,-0.063125
3.235,-0.1840625,-0.0621875
3.236,-0.1690625,-0.0615625
3.237,-0.158125,-0.06125
3.238,-0.151875,-0.0603125
3.239,-0.1515625,-0.06
3.24,-0.156875,-0.0596875
3.241,-0.1675,-0.0590625
3.242,-0.1825,-0.0584375
3.243,-0.200625,-0.058125
3.244,-0.220625,-0.0578125
3.245,-0.24,-0.0571875
3.246,-0.2578125,-0.056875
3.247,-0.2728125,-0.0565625
3.248,-0.283125,-0.05625
3.249,-0.2884375,-0.055625
3.25,-0.2890625,-0.0553125
3.251,-0.285,-0.055
3.252,-0.2765625,-0.0546875
3.253,-0.2659375,-0.0540625
3.254,-0.2540625,-0.05375
3.255,-0.243125,-0.0534375
3.256,-0.234375,-0.053125
3.257,-0.229375,-0.0528125
3.258,-0.229375,-0.0528125
3.259,-0.235,-0.0528125
3.26,-0.24625,-0.0525
3.261,-0.2628125,-0.0525
3.262,-0.28375,-0.0525
3.263,-0.3071875,-0.0528125
3.264,-0.3321875,-0.0528125
3.265,-0.356875,-0.0528125
3.266,-0.3796875,-0.053125
3.267,-0.39875,-0.053125
3.268,-0.41375,-0.053125
3.269,-0.423125,-0.053125
3.27,-0.426875,-0.0534375
3.271,-0.4253125,-0.0534375
3.272,-0.42,-0.0534375
3.273,-0.41125,-0.0534375
3.274,-0.4009375,-0.0534375
3.275,-0.390625,-0.0534375
3.276,-0.3821875,-0.0534375
3.277,-0.376875,-0.0534375
3.278,-0.3759375,-0.0534375
3.279,-0.38,-0.0534375
3.28,-0.3890625,-0.0534375
3.281,-0.4028125,-0.05375
3.282,-0.4203125,-0.05375
3.283,-0.4403125,-0.05375
3.284,-0.4615625,-0.0540625
3.285,-0.481875,-0.0540625
3.286,-0.5,-0.054375
3.287,-0.5146875,-0.054375
3.288,-0.5246875,-0.054375
3.289,-0.529375,-0.054375
3.29,-0.5284375,-0.0540625
3.291,-0.5228125,-0.0540625
3.292,-0.5128125,-0.0540625
3.293,-0.5,-0.05375
3.294,-0.485625,-0.05375
3.295,-0.4721875,-0.053125
3.296,-0.460625,-0.053125
3.297,-0.4525,-0.0528125
3.298,-0.4490625,-0.0525
3.299,-0.4509375,-0.0525
3.3,-0.4584375,-0.051875
3.301,-0.470625,-0.051875
3.302,-0.486875,-0.0515625
3.303,-0.50625,-0.05125
3.304,-0.5265625,-0.05125
3.305,-0.54625,-0.0509375
3.306,-0.56375,-0.0509375
3.307,-0.5778125,-0.0503125
3.308,-0.5871875,-0.0503125
3.309,-0.5915625,-0.0496875
3.31,-0.59,-0.049375
3.311,-0.583125,-0.0490625
3.312,-0.5721875,-0.0484375
3.313,-0.558125,-0.048125
3.314,-0.5421875,-0.0475
3.315,-0.526875,-0.0471875
3.316,-0.513125,-0.046875
3.317,-0.5028125,-0.04625
3.318,-0.496875,-0.0459375
3.319,-0.49625,-0.045625
3.32,-0.5009375,-0.045
3.321,-0.5103125,-0.045
3.322,-0.52375,-0.0446875
3.323,-0.5396875,-0.044375
3.324,-0.5571875,-0.044375
3.325,-0.5740625,-0.0440625
3.326,-0.58875,-0.04375
3.327,-0.6003125,-0.04375
3.328,-0.6071875,-0.0434375
3.329,-0.6090625,-0.0434375
3.33,-0.605625,-0.043125
3.331,-0.5971875,-0.043125
3.332,-0.5846875,-0.0428125
3.333,-0.5690625,-0.0428125
3.334,-0.5525,-0.0428125
3.335,-0.5365625,-0.0425
3.336,-0.5225,-0.0425
3.337,-0.5121875,-0.0425
3.338,-0.506875,-0.0425
3.339,-0.506875,-0.0425
3.34,-0.5125,-0.0425
3.341,-0.5234375,-0.0428125
3.342,-0.53875,-0.0428125
3.343,-0.5571875,-0.0428125
3.344,-0.576875,-0.043125
3.345,-0.5965625,-0.0434375
3.346,-0.614375,-0.04375
3.347,-0.62875,-0.04375
3.348,-0.6390625,-0.0440625
3.349,-0.644375,-0.0440625
3.35,-0.64375,-0.0440625
3.351,-0.6384375,-0.044375
3.352,-0.6284375,-0.044375
3.353,-0.615625,-0.044375
3.354,-0.60125,-0.0446875
3.355,-0.586875,-0.0446875
3.356,-0.5740625,-0.0446875
3.357,-0.564375,-0.0446875
3.358,-0.5596875,-0.045
3.359,-0.559375,-0.045
3.36,-0.5640625,-0.045
3.361,-0.57375,-0.0453125
3.362,-0.5871875,-0.045625
3.363,-0.6028125,-0.045625
3.364,-0.6196875,-0.0459375
3.365,-0.635625,-0.0459375
3.366,-0.649375,-0.0459375
3.367,-0.659375,-0.04625
3.368,-0.6640625,-0.04625
3.369,-0.6634375,-0.04625
3.37,-0.6565625,-0.04625
3.371,-0.644375,-0.04625
3.372,-0.6275,-0.0465625
3.373,-0.606875,-0.0465625
3.374,-0.5846875,-0.0465625
3.375,-0.5621875,-0.0465625
3.376,-0.54125,-0.0465625
3.377,-0.5234375,-0.0465625
3.378,-0.5096875,-0.0465625
3.379,-0.50125,-0.0465625
3.38,-0.4978125,-0.046875
3.381,-0.4996875,-0.046875
3.382,-0.505,-0.0471875
3.383,-0.5134375,-0.0475
3.384,-0.5234375,-0.0475
3.385,-0.5328125,-0.048125
3.386,-0.5403125,-0.048125
3.387,-0.5446875,-0.04875
3.388,-0.544375,-0.04875
3.389,-0.5390625,-0.0490625
3.39,-0.5284375,-0.049375
3.391,-0.5128125,-0.0496875
3.392,-0.4928125,-0.05
3.393,-0.47,-0.05
3.394,-0.4459375,-0.0503125
3.395,-0.4225,-0.050625
3.396,-0.40125,-0.050625
3.397,-0.38375,-0.05125
3.398,-0.3715625,-0.05125
3.399,-0.365,-0.051875
3.4,-0.3646875,-0.0521875
3.401,-0.3703125,-0.0525
3.402,-0.3809375,-0.053125
3.403,-0.395,-0.0534375
3.404,-0.4115625,-0.05375
3.405,-0.42875,-0.054375
3.406,-0.444375,-0.0546875
3.407,-0.4571875,-0.0553125
3.408,-0.4665625,-0.055625
3.409,-0.4709375,-0.0559375
3.41,-0.47,-0.05625
3.411,-0.464375,-0.0565625
3.412,-0.4546875,-0.056875
3.413,-0.4415625,-0.0571875
3.414,-0.4275,-0.0571875
3.415,-0.413125,-0.0575
3.416,-0.4003125,-0.0578125
3.417,-0.3909375,-0.0578125
3.418,-0.38625,-0.058125
3.419,-0.3865625,-0.0584375
3.42,-0.3925,-0.0584375
3.421,-0.4034375,-0.05875
3.422,-0.41875,-0.0590625
3.423,-0.4371875,-0.059375
3.424,-0.4571875,-0.059375
3.425,-0.476875,-0.0596875
3.426,-0.4946875,-0.0596875
3.427,-0.509375,-0.0596875
3.428,-0.5196875,-0.06
3.429,-0.5246875,-0.06
3.43,-0.5240625,-0.0596875
3.431,-0.5178125,-0.0596875
3.432,-0.5071875,-0.0596875
3.433,-0.493125,-0.0596875
3.434,-0.4771875,-0.059375
3.435,-0.4609375,-0.0590625
3.436,-0.44625,-0.0590625
3.437,-0.4346875,-0.05875
3.438,-0.4278125,-0.05875
3.439,-0.4259375,-0.0584375
3.44,-0.4296875,-0.0584375
3.441,-0.43875,-0.0584375
3.442,-0.4521875,-0.0584375
3.443,-0.4690625,-0.0584375
3.444,-0.4878125,-0.0584375
3.445,-0.5071875,-0.0584375
3.446,-0.5246875,-0.0584375
3.447,-0.5396875,-0.0584375
3.448,-0.550625,-0.0584375
3.449,-0.5565625,-0.058125
3.45,-0.5575,-0.058125
3.451,-0.5534375,-0.058125
3.452,-0.5446875,-0.058125
3.453,-0.5328125,-0.058125
3.454,-0.519375,-0.058125
3.455,-0.505625,-0.058125
3.456,-0.4934375,-0.058125
3.457,-0.4846875,-0.0584375
3.458,-0.48,-0.0584375
3.459,-0.4803125,-0.0584375
3.46,-0.4859375,-0.05875
3.461,-0.4965625,-0.0590625
3.462,-0.51125,-0.0590625
3.463,-0.5284375,-0.059375
3.464,-0.5471875,-0.0596875
3.465,-0.5659375,-0.0603125
3.466,-0.5825,-0.0603125
3.467,-0.5953125,-0.0609375
3.468,-0.60375,-0.0609375
3.469,-0.6065625,-0.06125
3.47,-0.6034375,-0.061875
3.471,-0.595,-0.0621875
3.472,-0.58125,-0.0621875
3.473,-0.5640625,-0.0625
3.474,-0.5446875,-0.0625
3.475,-0.524375,-0.0628125
3.476,-0.5059375,-0.063125
3.477,-0.49,-0.063125
3.478,-0.478125,-0.0634375
3.479,-0.4715625,-0.06375
3.48,-0.47,-0.06375
3.481,-0.4734375,-0.0640625
3.482,-0.48125,-0.0640625
3.483,-0.4921875,-0.0646875
3.484,-0.5046875,-0.0646875
3.485,-0.5175,-0.065
3.486,-0.5284375,-0.0653125
3.487,-0.5365625,-0.065625
3.488,-0.540625,-0.065625
3.489,-0.5396875,-0.065625
3.49,-0.53375,-0.0659375
3.491,-0.5221875,-0.0659375
3.492,-0.506875,-0.0659375
3.493,-0.4884375,-0.0659375
3.494,-0.4684375,-0.065625
3.495,-0.44875,-0.065625
3.496,-0.4309375,-0.065625
3.497,-0.4165625,-0.065625
3.498,-0.4071875,-0.065625
3.499,-0.4034375,-0.0653125
3.5,-0.405625,-0.0653125
3.501,-0.4134375,-0.0653125
3.502,-0.42625,-0.0653125
3.503,-0.4425,-0.065625
3.504,-0.46125,-0.065625
3.505,-0.4809375,-0.065625
3.506,-0.499375,-0.065625
3.507,-0.515625,-0.065625
3.508,-0.5278125,-0.065625
3.509,-0.5359375,-0.065625
3.51,-0.5396875,-0.065625
3.511,-0.5384375,-0.0653125
3.512,-0.5334375,-0.0653125
3.513,-0.5259375,-0.0653125
3.514,-0.516875,-0.065
3.515,-0.50875,-0.065
3.516,-0.5025,-0.065
3.517,-0.5,-0.065
3.518,-0.5021875,-0.0646875
3.519,-0.51,-0.0646875
3.52,-0.52375,-0.0646875
3.521,-0.5428125,-0.0646875
3.522,-0.5665625,-0.0646875
3.523,-0.59375,-0.0646875
3.524,-0.6228125,-0.0646875
3.525,-0.6521875,-0.0646875
3.526,-0.68,-0.064375
3.527,-0.705,-0.064375
3.528,-0.725,-0.064375
3.529,-0.7403125,-0.064375
3.53,-0.7496875,-0.0640625
3.531,-0.75375,-0.06375
3.532,-0.7528125,-0.06375
3.533,-0.748125,-0.0634375
3.534,-0.7409375,-0.0628125
3.535,-0.7334375,-0.0628125
3.536,-0.7265625,-0.0621875
3.537,-0.7221875,-0.0621875
3.538,-0.72125,-0.0615625
3.539,-0.725,-0.0615625
3.54,-0.7328125,-0.0609375
3.541,-0.7453125,-0.0609375
3.542,-0.76125,-0.060625
3.543,-0.7790625,-0.06
3.544,-0.7984375,-0.06
3.545,-0.8165625,-0.0596875
3.546,-0.8321875,-0.059375
3.547,-0.844375,-0.059375
3.548,-0.85125,-0.05875
3.549,-0.8525,-0.0584375
3.55,-0.8478125,-0.0584375
3.551,-0.8371875,-0.0578125
3.552,-0.82125,-0.0578125
3.553,-0.801875,-0.0571875
3.554,-0.78,-0.056875
3.555,-0.7578125,-0.0565625
3.556,-0.736875,-0.05625
3.557,-0.718125,-0.0559375
3.558,-0.70375,-0.055625
3.559,-0.694375,-0.0553125
3.56,-0.69,-0.0553125
3.561,-0.6903125,-0.0546875
3.562,-0.695,-0.0546875
3.563,-0.703125,-0.0546875
3.564,-0.7125,-0.054375
3.565,-0.7215625,-0.054375
3.566,-0.729375,-0.0540625
3.567,-0.7334375,-0.05375
3.568,-0.733125,-0.05375
3.569,-0.7275,-0.0534375
3.57,-0.71625,-0.053125
3.571,-0.6996875,-0.0528125
3.572,-0.678125,-0.0528125
3.573,-0.653125,-0.0525
3.574,-0.62625,-0.0521875
3.575,-0.59875,-0.051875
3.576,-0.5728125,-0.051875
3.577,-0.55,-0.05125
3.578,-0.5309375,-0.05125
3.579,-0.5175,-0.0509375
3.58,-0.509375,-0.050625
3.581,-0.5065625,-0.050625
3.582,-0.5084375,-0.0503125
3.583,-0.5134375,-0.0503125
3.584,-0.5209375,-0.0503125
3.585,-0.5284375,-0.05
3.586,-0.534375,-0.05
3.587,-0.5378125,-0.0496875
3.588,-0.5375,-0.0496875
3.589,-0.5321875,-0.0496875
3.59,-0.5215625,-0.049375
3.591,-0.5059375,-0.049375
3.592,-0.4859375,-0.0490625
3.593,-0.4628125,-0.0490625
3.594,-0.438125,-0.0490625
3.595,-0.413125,-0.04875
3.596,-0.39,-0.04875
3.597,-0.3703125,-0.0484375
3.598,-0.355,-0.0484375
3.599,-0.345625,-0.0484375
3.6,-0.3421875,-0.048125
3.601,-0.344375,-0.048125
3.602,-0.3515625,-0.048125
3.603,-0.363125,-0.048125
3.604,-0.376875,-0.0484375
3.605,-0.3915625,-0.0484375
3.606,-0.4053125,-0.0484375
3.607,-0.4165625,-0.0484375
3.608,-0.424375,-0.0484375
3.609,-0.4275,-0.0484375
3.61,-0.4259375,-0.0484375
3.611,-0.4190625,-0.04875
3.612,-0.4078125,-0.04875
3.613,-0.3934375,-0.0484375
3.614,-0.3771875,-0.0484375
3.615,-0.360625,-0.0484375
3.616,-0.345625,-0.0484375
3.617,-0.33375,-0.04875
3.618,-0.3259375,-0.04875
3.619,-0.3240625,-0.04875
3.62,-0.3275,-0.04875
3.621,-0.3365625,-0.04875
3.622,-0.350625,-0.04875
3.623,-0.368125,-0.0490625
3.624,-0.388125,-0.0490625
3.625,-0.40875,-0.0490625
3.626,-0.4284375,-0.049375
3.627,-0.445625,-0.049375
3.628,-0.4584375,-0.049375
3.629,-0.4671875,-0.0496875
3.63,-0.4703125,-0.0496875
3.631,-0.4684375,-0.05
3.632,-0.461875,-0.05
3.633,-0.451875,-0.05
3.634,-0.439375,-0.0503125
3.635,-0.4265625,-0.0503125
3.636,-0.4146875,-0.0503125
3.637,-0.405625,-0.050625
3.638,-0.4003125,-0.050625
3.639,-0.4003125,-0.0509375
3.64,-0.405,-0.05125
3.641,-0.4153125,-0.05125
3.642,-0.4296875,-0.0515625
3.643,-0.4475,-0.051875
3.644,-0.4671875,-0.0521875
3.645,-0.486875,-0.0528125
3.646,-0.5053125,-0.0528125
3.647,-0.520625,-0.0534375
3.648,-0.5315625,-0.05375
3.649,-0.538125,-0.0540625
3.65,-0.53875,-0.054375
3.651,-0.53375,-0.0546875
3.652,-0.5240625,-0.0553125
3.653,-0.5103125,-0.055625
3.654,-0.494375,-0.0559375
3.655,-0.4778125,-0.05625
3.656,-0.461875,-0.056875
3.657,-0.4490625,-0.0571875
3.658,-0.44,-0.0578125
3.659,-0.4359375,-0.058125
3.66,-0.4371875,-0.0584375
3.661,-0.44375,-0.059375
3.662,-0.4546875,-0.0596875
3.663,-0.4690625,-0.0603125
3.664,-0.4859375,-0.060625
3.665,-0.5028125,-0.0615625
3.666,-0.51875,-0.061875
3.667,-0.5315625,-0.0621875
3.668,-0.5409375,-0.0628125
3.669,-0.545625,-0.063125
3.67,-0.5446875,-0.06375
3.671,-0.53875,-0.0640625
3.672,-0.528125,-0.064375
3.673,-0.5140625,-0.0646875
3.674,-0.498125,-0.065
3.675,-0.48125,-0.0653125
3.676,-0.465625,-0.065625
3.677,-0.4528125,-0.0659375
3.678,-0.444375,-0.06625
3.679,-0.4409375,-0.0665625
3.68,-0.4428125,-0.066875
3.681,-0.45,-0.0675
3.682,-0.4615625,-0.0678125
3.683,-0.4765625,-0.068125
3.684,-0.49375,-0.0684375
3.685,-0.5109375,-0.0690625
3.686,-0.526875,-0.069375
3.687,-0.5396875,-0.0696875
3.688,-0.548125,-0.07
3.689,-0.55125,-0.0703125
3.69,-0.54875,-0.070625
3.691,-0.5403125,-0.070625
3.692,-0.526875,-0.0709375
3.693,-0.509375,-0.07125
3.694,-0.4890625,-0.07125
3.695,-0.4675,-0.07125
3.696,-0.446875,-0.07125
3.697,-0.4284375,-0.0715625
3.698,-0.41375,-0.0715625
3.699,-0.4034375,-0.0715625
3.7,-0.3978125,-0.0715625
3.701,-0.3971875,-0.0715625
3.702,-0.400625,-0.0715625
3.703,-0.4065625,-0.0715625
3.704,-0.414375,-0.07125
3.705,-0.4215625,-0.07125
3.706,-0.4271875,-0.07125
3.707,-0.429375,-0.070625
3.708,-0.4265625,-0.0703125
3.709,-0.4184375,-0.07
3.71,-0.4040625,-0.0690625
3.711,-0.38375,-0.06875
3.712,-0.358125,-0.0678125
3.713,-0.3284375,-0.066875
3.714,-0.29625,-0.0659375
3.715,-0.2628125,-0.0646875
3.716,-0.230625,-0.0634375
3.717,-0.2009375,-0.0621875
3.718,-0.1753125,-0.0609375
3.719,-0.1546875,-0.059375
3.72,-0.1396875,-0.0578125
3.721,-0.13,-0.05625
3.722,-0.1246875,-0.054375
3.723,-0.1234375,-0.0528125
3.724,-0.1246875,-0.050625
3.725,-0.12625,-0.04875
3.726,-0.126875,-0.0465625
3.727,-0.125,-0.0446875
3.728,-0.119375,-0.0421875
3.729,-0.1090625,-0.0396875
3.73,-0.0940625,-0.0371875
3.731,-0.0740625,-0.034375
3.732,-0.05,-0.0315625
3.733,-0.023125,-0.0284375
3.734,0.005625,-0.025
3.735,0.0340625,-0.0215625
3.736,0.0603125,-0.0178125
3.737,0.083125,-0.0140625
3.738,0.100625,-0.01
3.739,0.111875,-0.0059375
3.74,0.1171875,-0.0015625
3.741,0.1159375,0.003125
3.742,0.109375,0.008125
3.743,0.0984375,0.013125
3.744,0.084375,0.0184375
3.745,0.069375,0.0240625
3.746,0.055,0.0296875
3.747,0.0425,0.0359375
3.748,0.0340625,0.0425
3.749,0.029375,0.0490625
3.75,0.03,0.05625
3.751,0.035625,0.06375
3.752,0.045,0.07125
3.753,0.0578125,0.0790625
3.754,0.0721875,0.0875
3.755,0.08625,0.09625
3.756,0.0990625,0.1053125
3.757,0.108125,0.1146875
3.758,0.1128125,0.124375
3.759,0.1115625,0.134375
3.76,0.1046875,0.144375
3.761,0.0915625,0.1546875
3.762,0.07375,0.165625
3.763,0.051875,0.1765625
3.764,0.0271875,0.1875
3.765,0.0021875,0.1990625
3.766,-0.0221875,0.210625
3.767,-0.04375,0.2221875
3.768,-0.0615625,0.234375
3.769,-0.0746875,0.24625
3.77,-0.0825,0.2584375
3.771,-0.085,0.270625
3.772,-0.083125,0.2828125
3.773,-0.078125,0.2953125
3.774,-0.070625,0.3075
3.775,-0.0628125,0.32
3.776,-0.0565625,0.3321875
3.777,-0.053125,0.344375
3.778,-0.0540625,0.3565625
3.779,-0.0603125,0.368125
3.78,-0.0721875,0.38
3.781,-0.0896875,0.391875
3.782,-0.111875,0.403125
3.783,-0.1378125,0.4140625
3.784,-0.165625,0.425
3.785,-0.194375,0.435625
3.786,-0.2215625,0.445625
3.787,-0.245625,0.455625
3.788,-0.2659375,0.4653125
3.789,-0.280625,0.4746875
3.79,-0.29,0.4834375
3.791,-0.293125,0.491875
3.792,-0.29125,0.5
3.793,-0.285625,0.5075
3.794,-0.2771875,0.515
3.795,-0.2675,0.5215625
3.796,-0.25875,0.5278125
3.797,-0.2521875,0.5340625
3.798,-0.249375,0.539375
3.799,-0.25125,0.544375
3.8,-0.2584375,0.54875
3.801,-0.2703125,0.5528125
3.802,-0.2871875,0.55625
3.803,-0.3071875,0.5590625
3.804,-0.3290625,0.5615625
3.805,-0.3515625,0.5634375
3.806,-0.3725,0.565
3.807,-0.3909375,0.5659375
3.808,-0.405,0.56625
3.809,-0.4140625,0.5665625
3.81,-0.4171875,0.56625
3.811,-0.415,0.5653125
3.812,-0.4078125,0.5640625
3.813,-0.3965625,0.5628125
3.814,-0.3825,0.560625
3.815,-0.3675,0.558125
3.816,-0.3534375,0.5553125
3.817,-0.3415625,0.5525
3.818,-0.3334375,0.5490625
3.819,-0.33,0.5453125
3.82,-0.331875,0.5409375
3.821,-0.3384375,0.5365625
3.822,-0.3496875,0.531875
3.823,-0.3646875,0.526875
3.824,-0.38125,0.52125
3.825,-0.3984375,0.5159375
3.826,-0.4140625,0.51
3.827,-0.426875,0.5040625
3.828,-0.435625,0.4978125
3.829,-0.4390625,0.49125
3.83,-0.436875,0.4846875
3.831,-0.42875,0.478125
3.832,-0.4153125,0.4709375
3.833,-0.3978125,0.464375
3.834,-0.3775,0.4571875
3.835,-0.3559375,0.45
3.836,-0.335,0.4428125
3.837,-0.31625,0.435625
3.838,-0.30125,0.4284375
3.839,-0.290625,0.4209375
3.84,-0.2853125,0.4134375
3.841,-0.2853125,0.4059375
3.842,-0.2896875,0.3984375
3.843,-0.2975,0.3909375
3.844,-0.3075,0.3834375
3.845,-0.3184375,0.375625
3.846,-0.328125,0.368125
3.847,-0.335,0.360625
3.848,-0.338125,0.353125
3.849,-0.33625,0.345625
3.85,-0.329375,0.338125
3.851,-0.316875,0.330625
3.852,-0.299375,0.323125
3.853,-0.278125,0.3159375
3.854,-0.2546875,0.30875
3.855,-0.2303125,0.30125
3.856,-0.2071875,0.294375
3.857,-0.186875,0.2871875
3.858,-0.170625,0.28
3.859,-0.1596875,0.2734375
3.86,-0.154375,0.26625
3.861,-0.155,0.259375
3.862,-0.160625,0.2528125
3.863,-0.170625,0.245625
3.864,-0.183125,0.239375
3.865,-0.196875,0.2325
3.866,-0.21,0.2259375
3.867,-0.220625,0.2196875
3.868,-0.2278125,0.213125
3.869,-0.23,0.206875
3.87,-0.2275,0.200625
3.871,-0.219375,0.194375
3.872,-0.2065625,0.1884375
3.873,-0.19,0.1821875
3.874,-0.17125,0.17625
3.875,-0.1515625,0.170625
3.876,-0.1328125,0.1646875
3.877,-0.116875,0.15875
3.878,-0.105,0.1528125
3.879,-0.0984375,0.1475
3.88,-0.0975,0.1415625
3.881,-0.1025,0.13625
3.882,-0.1125,0.1303125
3.883,-0.126875,0.125
3.884,-0.1440625,0.119375
3.885,-0.1621875,0.1140625
3.886,-0.18,0.10875
3.887,-0.1953125,0.1034375
3.888,-0.2075,0.098125
3.889,-0.215,0.093125
3.89,-0.2175,0.088125
3.891,-0.2146875,0.083125
3.892,-0.206875,0.078125
3.893,-0.1953125,0.073125
3.894,-0.18125,0.0684375
3.895,-0.16625,0.06375
3.896,-0.151875,0.0590625
3.897,-0.14,0.054375
3.898,-0.131875,0.05
3.899,-0.1284375,0.0453125
3.9,-0.1303125,0.0409375
3.901,-0.1375,0.036875
3.902,-0.1490625,0.0325
3.903,-0.1640625,0.0284375
3.904,-0.18125,0.024375
3.905,-0.19875,0.0203125
3.906,-0.215,0.0165625
3.907,-0.22875,0.0125
3.908,-0.238125,0.0090625
3.909,-0.2425,0.0053125
3.91,-0.2409375,0.0015625
3.911,-0.2340625,-0.001875
3.912,-0.2215625,-0.005
3.913,-0.205,-0.0084375
3.914,-0.185625,-0.0115625
3.915,-0.165,-0.0146875
3.916,-0.145,-0.0178125
3.917,-0.1271875,-0.020625
3.918,-0.1134375,-0.0234375
3.919,-0.1040625,-0.0265625
3.92,-0.0996875,-0.0290625
3.921,-0.1009375,-0.0321875
3.922,-0.1065625,-0.0346875
3.923,-0.115625,-0.0375
3.924,-0.1271875,-0.04
3.925,-0.1396875,-0.0425
3.926,-0.1509375,-0.045
3.927,-0.1596875,-0.0471875
3.928,-0.164375,-0.0496875
3.929,-0.164375,-0.051875
3.93,-0.1590625,-0.0540625
3.931,-0.1484375,-0.0559375
3.932,-0.133125,-0.058125
3.933,-0.1140625,-0.06
3.934,-0.0925,-0.0621875
3.935,-0.070625,-0.06375
3.936,-0.0496875,-0.0659375
3.937,-0.0315625,-0.0678125
3.938,-0.0178125,-0.069375
3.939,-0.009375,-0.07125
3.94,-0.0065625,-0.0728125
3.941,-0.0096875,-0.074375
3.942,-0.018125,-0.07625
3.943,-0.030625,-0.0778125
3.944,-0.0459375,-0.079375
3.945,-0.0625,-0.08125
3.946,-0.0784375,-0.0828125
3.947,-0.0928125,-0.084375
3.948,-0.10375,-0.085625
3.949,-0.1103125,-0.0871875
3.95,-0.1125,-0.08875
3.951,-0.1096875,-0.0903125
3.952,-0.1025,-0.0915625
3.953,-0.0925,-0.0928125
3.954,-0.080625,-0.094375
3.955,-0.068125,-0.095625
3.956,-0.0575,-0.096875
3.957,-0.05,-0.0984375
3.958,-0.0471875,-0.0996875
3.959,-0.05,-0.10125
3.96,-0.05875,-0.1025
3.961,-0.0734375,-0.10375
3.962,-0.0934375,-0.1053125
3.963,-0.118125,-0.1065625
3.964,-0.1453125,-0.108125
3.965,-0.1740625,-0.1096875
3.966,-0.2021875,-0.1109375
3.967,-0.2278125,-0.1125
3.968,-0.25,-0.1140625
3.969,-0.2671875,-0.1153125
3.97,-0.2790625,-0.1165625
3.971,-0.285625,-0.118125
3.972,-0.2865625,-0.119375
3.973,-0.28375,-0.120625
3.974,-0.2778125,-0.1221875
3.975,-0.2703125,-0.1234375
3.976,-0.2634375,-0.1246875
3.977,-0.258125,-0.1259375
3.978,-0.25625,-0.1271875
3.979,-0.2584375,-0.1284375
3.98,-0.2653125,-0.1296875
3.981,-0.2771875,-0.1309375
3.982,-0.293125,-0.1321875
3.983,-0.3121875,-0.1334375
3.984,-0.333125,-0.1346875
3.985,-0.354375,-0.135625
3.986,-0.37375,-0.136875
3.987,-0.3903125,-0.138125
3.988,-0.4021875,-0.1390625
3.989,-0.4090625,-0.1403125
3.99,-0.4096875,-0.1415625
3.991,-0.404375,-0.1425
3.992,-0.39375,-0.1434375
3.993,-0.37875,-0.144375
3.994,-0.360625,-0.1453125
3.995,-0.3409375,-0.14625
3.996,-0.3215625,-0.1471875
3.997,-0.3046875,-0.1478125
3.998,-0.2915625,-0.14875
3.999,-0.2828125,-0.1496875
4,-0.2796875,-0.15
4.001,-0.2821875,-0.1509375
4.002,-0.289375,-0.151875
4.003,-0.3009375,-0.1521875
4.004,-0.3153125,-0.153125
4.005,-0.330625,-0.15375
4.006,-0.345625,-0.1540625
4.007,-0.3584375,-0.155
4.008,-0.3678125,-0.1553125
4.009,-0.3725,-0.155625
4.01,-0.3721875,-0.15625
4.011,-0.3665625,-0.156875
4.012,-0.3559375,-0.1571875
4.013,-0.34125,-0.1575
4.014,-0.324375,-0.158125
4.015,-0.3059375,-0.1584375
4.016,-0.2884375,-0.15875
4.017,-0.273125,-0.1590625
4.018,-0.2615625,-0.1590625
4.019,-0.2553125,-0.1596875
4.02,-0.254375,-0.1596875
4.021,-0.259375,-0.16
4.022,-0.2696875,-0.1603125
4.023,-0.284375,-0.1603125
4.024,-0.3021875,-0.1603125
4.025,-0.3215625,-0.160625
4.026,-0.340625,-0.1609375
4.027,-0.358125,-0.1609375
4.028,-0.3725,-0.16125
4.029,-0.3828125,-0.16125
4.03,-0.38875,-0.16125
4.031,-0.389375,-0.1615625
4.032,-0.385625,-0.1615625
4.033,-0.3784375,-0.161875
4.034,-0.36875,-0.161875
4.035,-0.3578125,-0.161875
4.036,-0.348125,-0.1621875
4.037,-0.3409375,-0.1621875
4.038,-0.3375,-0.1621875
4.039,-0.339375,-0.1621875
4.04,-0.346875,-0.1621875
4.041,-0.36,-0.1621875
4.042,-0.378125,-0.1625
4.043,-0.4003125,-0.1625
4.044,-0.425625,-0.1625
4.045,-0.4521875,-0.1625
4.046,-0.478125,-0.1625
4.047,-0.501875,-0.1625
4.048,-0.5221875,-0.1625
4.049,-0.5378125,-0.1625
4.05,-0.5478125,-0.1625
4.051,-0.551875,-0.1628125
4.052,-0.550625,-0.1628125
4.053,-0.5446875,-0.1628125
4.054,-0.5353125,-0.1628125
4.055,-0.52375,-0.1628125
4.056,-0.5121875,-0.1628125
4.057,-0.5015625,-0.1628125
4.058,-0.4940625,-0.1628125
4.059,-0.490625,-0.1628125
4.06,-0.4915625,-0.1628125
4.061,-0.4975,-0.1628125
4.062,-0.5075,-0.1628125
4.063,-0.5209375,-0.1628125
4.064,-0.536875,-0.1628125
4.065,-0.553125,-0.1628125
4.066,-0.56875,-0.1628125
4.067,-0.5815625,-0.1628125
4.068,-0.5903125,-0.1628125
4.069,-0.594375,-0.1628125
4.07,-0.5928125,-0.1628125
4.071,-0.5853125,-0.1628125
4.072,-0.5721875,-0.1628125
4.073,-0.555,-0.1628125
4.074,-0.534375,-0.1628125
4.075,-0.5121875,-0.1628125
4.076,-0.4896875,-0.163125
4.077,-0.46875,-0.163125
4.078,-0.45125,-0.163125
4.079,-0.438125,-0.163125
4.08,-0.429375,-0.163125
4.081,-0.42625,-0.163125
4.082,-0.4271875,-0.163125
4.083,-0.4321875,-0.163125
4.084,-0.4396875,-0.163125
4.085,-0.448125,-0.163125
4.086,-0.4553125,-0.163125
4.087,-0.4603125,-0.1634375
4.088,-0.46125,-0.1634375
4.089,-0.4578125,-0.1634375
4.09,-0.4484375,-0.1634375
4.091,-0.4334375,-0.1634375
4.092,-0.4128125,-0.16375
4.093,-0.3878125,-0.16375
4.094,-0.3596875,-0.16375
4.095,-0.3296875,-0.16375
4.096,-0.3,-0.16375
4.097,-0.271875,-0.1640625
4.098,-0.246875,-0.1640625
4.099,-0.2265625,-0.1640625
4.1,-0.21125,-0.1640625
4.101,-0.20125,-0.1640625
4.102,-0.19625,-0.164375
4.103,-0.195,-0.164375
4.104,-0.1965625,-0.164375
4.105,-0.1996875,-0.164375
4.106,-0.201875,-0.164375
4.107,-0.2021875,-0.164375
4.108,-0.199375,-0.1646875
4.109,-0.1921875,-0.1646875
4.11,-0.1803125,-0.1646875
4.111,-0.163125,-0.1646875
4.112,-0.14125,-0.1646875
4.113,-0.115625,-0.165
4.114,-0.0875,-0.165
4.115,-0.05875,-0.165
4.116,-0.0309375,-0.165
4.117,-0.0053125,-0.165
4.118,0.0159375,-0.165
4.119,0.0315625,-0.165
4.12,0.041875,-0.1646875
4.121,0.04625,-0.1646875
4.122,0.0446875,-0.1646875
4.123,0.0390625,-0.164375
4.124,0.0303125,-0.164375
4.125,0.0196875,-0.164375
4.126,0.0090625,-0.1640625
4.127,0,-0.16375
4.128,-0.005625,-0.16375
4.129,-0.0075,-0.1634375
4.13,-0.0046875,-0.163125
4.131,0.0034375,-0.163125
4.132,0.015625,-0.1628125
4.133,0.031875,-0.1625
4.134,0.05,-0.1625
4.135,0.0696875,-0.161875
4.136,0.088125,-0.161875
4.137,0.1040625,-0.1615625
4.138,0.1159375,-0.16125
4.139,0.1228125,-0.1609375
4.14,0.12375,-0.160625
4.141,0.1190625,-0.160625
4.142,0.10875,-0.1603125
4.143,0.0940625,-0.1596875
4.144,0.076875,-0.1596875
4.145,0.0578125,-0.1590625
4.146,0.0390625,-0.15875
4.147,0.0225,-0.1584375
4.148,0.0090625,-0.158125
4.149,0.0003125,-0.1578125
4.15,-0.003125,-0.1575
4.151,-0.0015625,-0.156875
4.152,0.005,-0.156875
4.153,0.0159375,-0.15625
4.154,0.0290625,-0.1559375
4.155,0.0440625,-0.155625
4.156,0.0584375,-0.1553125
4.157,0.070625,-0.155
4.158,0.0790625,-0.1546875
4.159,0.0828125,-0.1546875
4.16,0.0809375,-0.154375
4.161,0.07375,-0.15375
4.162,0.0609375,-0.15375
4.163,0.044375,-0.1534375
4.164,0.0246875,-0.153125
4.165,0.00375,-0.153125
4.166,-0.0165625,-0.1528125
4.167,-0.035,-0.1521875
4.168,-0.0503125,-0.1521875
