Interval=,0.001 s,
ExcelDateTime=,4.54E+04,05:15.6
TimeFormat=,StartOfBlock,
DateFormat=,,
ChannelTitle=,Channel 3,Channel 4
Range=,10.000 mV,10.000 mV
,,
0.001,0,0
0.002,0,-0.0003125
0.003,-0.0003125,-0.0003125
0.004,-0.0003125,-0.0003125
0.005,-0.0003125,-0.0003125
0.006,-0.0003125,-0.000625
0.007,-0.0003125,-0.0009375
0.008,-0.0003125,-0.001875
0.009,-0.000625,-0.0025
0.01,-0.0009375,-0.003125
0.011,-0.0009375,-0.004375
0.012,-0.0015625,-0.00625
0.013,-0.001875,-0.0078125
0.014,-0.0021875,-0.0103125
0.015,-0.003125,-0.0128125
0.016,-0.00375,-0.0159375
0.017,-0.0040625,-0.019375
0.018,-0.005,-0.02375
0.019,-0.0059375,-0.0284375
0.02,-0.0065625,-0.0334375
0.021,-0.0075,-0.0390625
0.022,-0.00875,-0.0453125
0.023,-0.01,-0.0521875
0.024,-0.01125,-0.0596875
0.025,-0.0125,-0.0675
0.026,-0.01375,-0.0759375
0.027,-0.0153125,-0.085
0.028,-0.016875,-0.0940625
0.029,-0.0184375,-0.1040625
0.03,-0.0203125,-0.114375
0.031,-0.021875,-0.1253125
0.032,-0.0234375,-0.1365625
0.033,-0.025625,-0.1478125
0.034,-0.0271875,-0.16
0.035,-0.029375,-0.1725
0.036,-0.0315625,-0.185
0.037,-0.033125,-0.1978125
0.038,-0.0353125,-0.21125
0.039,-0.0375,-0.224375
0.04,-0.039375,-0.2378125
0.041,-0.04125,-0.2515625
0.042,-0.0434375,-0.2653125
0.043,-0.0453125,-0.2790625
0.044,-0.046875,-0.2925
0.045,-0.0484375,-0.30625
0.046,-0.0503125,-0.3196875
0.047,-0.051875,-0.3325
0.048,-0.0534375,-0.3453125
0.049,-0.055,-0.3578125
0.05,-0.05625,-0.37
0.051,-0.0575,-0.3815625
0.052,-0.05875,-0.3928125
0.053,-0.0596875,-0.40375
0.054,-0.0609375,-0.414375
0.055,-0.061875,-0.4240625
0.056,-0.0628125,-0.43375
0.057,-0.06375,-0.443125
0.058,-0.0640625,-0.451875
0.059,-0.0646875,-0.46
0.06,-0.065625,-0.468125
0.061,-0.0659375,-0.475625
0.062,-0.06625,-0.4828125
0.063,-0.0665625,-0.49
0.064,-0.066875,-0.4965625
0.065,-0.066875,-0.5028125
0.066,-0.066875,-0.50875
0.067,-0.066875,-0.514375
0.068,-0.066875,-0.5196875
0.069,-0.0665625,-0.5246875
0.07,-0.06625,-0.5296875
0.071,-0.06625,-0.53375
0.072,-0.0659375,-0.538125
0.073,-0.065625,-0.541875
0.074,-0.0653125,-0.5453125
0.075,-0.065,-0.54875
0.076,-0.0646875,-0.551875
0.077,-0.064375,-0.5546875
0.078,-0.0640625,-0.5578125
0.079,-0.0634375,-0.5603125
0.08,-0.063125,-0.5628125
0.081,-0.0625,-0.565
0.082,-0.0621875,-0.5671875
0.083,-0.0615625,-0.569375
0.084,-0.06125,-0.5715625
0.085,-0.0603125,-0.5734375
0.086,-0.06,-0.575625
0.087,-0.0590625,-0.5771875
0.088,-0.05875,-0.5790625
0.089,-0.0578125,-0.58125
0.09,-0.0575,-0.5828125
0.091,-0.056875,-0.5840625
0.092,-0.05625,-0.5859375
0.093,-0.055625,-0.5871875
0.094,-0.055,-0.5884375
0.095,-0.0540625,-0.5896875
0.096,-0.05375,-0.5909375
0.097,-0.0528125,-0.5921875
0.098,-0.0521875,-0.593125
0.099,-0.051875,-0.594375
0.1,-0.0509375,-0.5953125
0.101,-0.050625,-0.5965625
0.102,-0.0496875,-0.5978125
0.103,-0.04875,-0.59875
0.104,-0.0484375,-0.6
0.105,-0.0475,-0.6015625
0.106,-0.0465625,-0.6028125
0.107,-0.0459375,-0.6040625
0.108,-0.0453125,-0.605625
0.109,-0.044375,-0.606875
0.11,-0.04375,-0.6084375
0.111,-0.0428125,-0.6096875
0.112,-0.0425,-0.6109375
0.113,-0.0415625,-0.6125
0.114,-0.040625,-0.61375
0.115,-0.0403125,-0.615
0.116,-0.039375,-0.6165625
0.117,-0.03875,-0.6178125
0.118,-0.0378125,-0.619375
0.119,-0.0375,-0.6209375
0.12,-0.0365625,-0.6221875
0.121,-0.03625,-0.62375
0.122,-0.0353125,-0.625625
0.123,-0.034375,-0.6271875
0.124,-0.0340625,-0.62875
0.125,-0.033125,-0.6309375
0.126,-0.0325,-0.6325
0.127,-0.031875,-0.634375
0.128,-0.0309375,-0.6365625
0.129,-0.030625,-0.638125
0.13,-0.0296875,-0.6403125
0.131,-0.029375,-0.641875
0.132,-0.02875,-0.6440625
0.133,-0.0278125,-0.645625
0.134,-0.0275,-0.6471875
0.135,-0.0265625,-0.6490625
0.136,-0.02625,-0.6509375
0.137,-0.0259375,-0.6525
0.138,-0.025,-0.6540625
0.139,-0.0246875,-0.6559375
0.14,-0.024375,-0.6575
0.141,-0.0234375,-0.6590625
0.142,-0.023125,-0.6609375
0.143,-0.0228125,-0.6625
0.144,-0.0221875,-0.664375
0.145,-0.0215625,-0.6659375
0.146,-0.0209375,-0.6678125
0.147,-0.020625,-0.6696875
0.148,-0.02,-0.67125
0.149,-0.0196875,-0.6728125
0.15,-0.0190625,-0.6746875
0.151,-0.01875,-0.67625
0.152,-0.018125,-0.6778125
0.153,-0.0178125,-0.6790625
0.154,-0.0171875,-0.6809375
0.155,-0.016875,-0.6821875
0.156,-0.0165625,-0.6834375
0.157,-0.01625,-0.685
0.158,-0.015625,-0.68625
0.159,-0.0153125,-0.6875
0.16,-0.015,-0.68875
0.161,-0.0146875,-0.69
0.162,-0.0140625,-0.69125
0.163,-0.01375,-0.6925
0.164,-0.0134375,-0.69375
0.165,-0.0128125,-0.6953125
0.166,-0.0125,-0.6965625
0.167,-0.0121875,-0.698125
0.168,-0.0115625,-0.699375
0.169,-0.01125,-0.700625
0.17,-0.0109375,-0.701875
0.171,-0.0103125,-0.703125
0.172,-0.01,-0.7040625
0.173,-0.0096875,-0.7053125
0.174,-0.009375,-0.7065625
0.175,-0.00875,-0.7075
0.176,-0.00875,-0.7084375
0.177,-0.008125,-0.709375
0.178,-0.0078125,-0.7103125
0.179,-0.0075,-0.71125
0.18,-0.0071875,-0.7121875
0.181,-0.006875,-0.713125
0.182,-0.0065625,-0.7140625
0.183,-0.0059375,-0.715
0.184,-0.005625,-0.7159375
0.185,-0.0053125,-0.7171875
0.186,-0.005,-0.718125
0.187,-0.004375,-0.7190625
0.188,-0.0040625,-0.7203125
0.189,-0.0040625,-0.7209375
0.19,-0.0034375,-0.7221875
0.191,-0.003125,-0.723125
0.192,-0.0028125,-0.7240625
0.193,-0.0025,-0.7246875
0.194,-0.0025,-0.725625
0.195,-0.0021875,-0.7265625
0.196,-0.0015625,-0.726875
0.197,-0.0015625,-0.7278125
0.198,-0.00125,-0.72875
0.199,-0.0009375,-0.7290625
0.2,-0.0009375,-0.73
0.201,-0.0003125,-0.730625
0.202,0,-0.7315625
0.203,0,-0.7321875
0.204,0.0003125,-0.733125
0.205,0.000625,-0.7340625
0.206,0.0009375,-0.735
0.207,0.00125,-0.735625
0.208,0.0015625,-0.7365625
0.209,0.001875,-0.7375
0.21,0.0021875,-0.7384375
0.211,0.0025,-0.739375
0.212,0.0028125,-0.74
0.213,0.003125,-0.7409375
0.214,0.003125,-0.7415625
0.215,0.00375,-0.7425
0.216,0.00375,-0.7434375
0.217,0.0040625,-0.7440625
0.218,0.0046875,-0.7446875
0.219,0.0046875,-0.745625
0.22,0.005,-0.74625
0.221,0.005625,-0.7471875
0.222,0.005625,-0.748125
0.223,0.00625,-0.7490625
0.224,0.0065625,-0.7503125
0.225,0.006875,-0.75125
0.226,0.0071875,-0.7521875
0.227,0.0078125,-0.7534375
0.228,0.008125,-0.7546875
0.229,0.00875,-0.755625
0.23,0.0090625,-0.756875
0.231,0.0096875,-0.758125
0.232,0.01,-0.7590625
0.233,0.0103125,-0.7603125
0.234,0.0109375,-0.76125
0.235,0.01125,-0.7621875
0.236,0.0115625,-0.7634375
0.237,0.0121875,-0.7640625
0.238,0.0125,-0.7653125
0.239,0.0128125,-0.7659375
0.24,0.0134375,-0.7671875
0.241,0.01375,-0.768125
0.242,0.014375,-0.7690625
0.243,0.0146875,-0.7703125
0.244,0.0153125,-0.77125
0.245,0.015625,-0.7725
0.246,0.01625,-0.77375
0.247,0.0165625,-0.7746875
0.248,0.016875,-0.7759375
0.249,0.0175,-0.776875
0.25,0.0178125,-0.7778125
0.251,0.0184375,-0.77875
0.252,0.01875,-0.78
0.253,0.0190625,-0.780625
0.254,0.0196875,-0.7815625
0.255,0.02,-0.7821875
0.256,0.0203125,-0.783125
0.257,0.020625,-0.7840625
0.258,0.0209375,-0.784375
0.259,0.02125,-0.7853125
0.26,0.0215625,-0.78625
0.261,0.0221875,-0.786875
0.262,0.0221875,-0.7875
0.263,0.0228125,-0.7884375
0.264,0.0228125,-0.7890625
0.265,0.0234375,-0.79
0.266,0.0234375,-0.7909375
0.267,0.0240625,-0.7915625
0.268,0.0240625,-0.7925
0.269,0.0246875,-0.793125
0.27,0.025,-0.7940625
0.271,0.025,-0.795
0.272,0.0253125,-0.795625
0.273,0.0253125,-0.7959375
0.274,0.025625,-0.796875
0.275,0.0259375,-0.7971875
0.276,0.0259375,-0.7978125
0.277,0.02625,-0.7984375
0.278,0.02625,-0.79875
0.279,0.0265625,-0.7990625
0.28,0.0265625,-0.7996875
0.281,0.026875,-0.8
0.282,0.026875,-0.800625
0.283,0.026875,-0.8009375
0.284,0.0271875,-0.80125
0.285,0.0271875,-0.801875
0.286,0.0275,-0.8028125
0.287,0.0275,-0.803125
0.288,0.0275,-0.8034375
0.289,0.0278125,-0.804375
0.29,0.0278125,-0.8046875
0.291,0.028125,-0.8053125
0.292,0.028125,-0.805625
0.293,0.028125,-0.8059375
0.294,0.0284375,-0.80625
0.295,0.0284375,-0.806875
0.296,0.0284375,-0.8071875
0.297,0.02875,-0.8075
0.298,0.02875,-0.8078125
0.299,0.02875,-0.808125
0.3,0.0290625,-0.8084375
0.301,0.0290625,-0.80875
0.302,0.0290625,-0.8090625
0.303,0.029375,-0.8096875
0.304,0.029375,-0.81
0.305,0.0296875,-0.8109375
0.306,0.0296875,-0.8115625
0.307,0.03,-0.8121875
0.308,0.03,-0.813125
0.309,0.0303125,-0.8134375
0.31,0.0303125,-0.814375
0.311,0.0303125,-0.8146875
0.312,0.030625,-0.815
0.313,0.030625,-0.815625
0.314,0.030625,-0.815625
0.315,0.030625,-0.815625
0.316,0.0303125,-0.815625
0.317,0.0303125,-0.815625
0.318,0.0303125,-0.8153125
0.319,0.03,-0.8146875
0.32,0.03,-0.814375
0.321,0.0296875,-0.81375
0.322,0.0296875,-0.8134375
0.323,0.029375,-0.813125
0.324,0.029375,-0.8125
0.325,0.0290625,-0.8121875
0.326,0.0290625,-0.8115625
0.327,0.0290625,-0.81125
0.328,0.02875,-0.8109375
0.329,0.02875,-0.810625
0.33,0.0284375,-0.81
0.331,0.0284375,-0.8096875
0.332,0.028125,-0.80875
0.333,0.028125,-0.8084375
0.334,0.0278125,-0.8075
0.335,0.0275,-0.806875
0.336,0.0275,-0.8059375
0.337,0.0271875,-0.8046875
0.338,0.0271875,-0.80375
0.339,0.026875,-0.8028125
0.34,0.0265625,-0.801875
0.341,0.0265625,-0.8009375
0.342,0.0265625,-0.8
0.343,0.02625,-0.7990625
0.344,0.02625,-0.7984375
0.345,0.0265625,-0.798125
0.346,0.0265625,-0.7978125
0.347,0.0265625,-0.7975
0.348,0.0271875,-0.7975
0.349,0.0271875,-0.7978125
0.35,0.0275,-0.7978125
0.351,0.0278125,-0.7978125
0.352,0.0284375,-0.798125
0.353,0.0284375,-0.798125
0.354,0.0290625,-0.7984375
0.355,0.029375,-0.7984375
0.356,0.0296875,-0.7984375
0.357,0.03,-0.7984375
0.358,0.030625,-0.7984375
0.359,0.0309375,-0.7984375
0.36,0.03125,-0.798125
0.361,0.0315625,-0.798125
0.362,0.0321875,-0.798125
0.363,0.0325,-0.798125
0.364,0.033125,-0.798125
0.365,0.0334375,-0.798125
0.366,0.0340625,-0.798125
0.367,0.034375,-0.7984375
0.368,0.0346875,-0.7984375
0.369,0.0353125,-0.79875
0.37,0.0359375,-0.7990625
0.371,0.0365625,-0.799375
0.372,0.036875,-0.799375
0.373,0.0371875,-0.799375
0.374,0.0378125,-0.7996875
0.375,0.038125,-0.7996875
0.376,0.0384375,-0.7996875
0.377,0.0390625,-0.7996875
0.378,0.0390625,-0.799375
0.379,0.0396875,-0.799375
0.38,0.0396875,-0.799375
0.381,0.04,-0.7990625
0.382,0.04,-0.79875
0.383,0.0403125,-0.79875
0.384,0.040625,-0.7984375
0.385,0.040625,-0.7984375
0.386,0.0409375,-0.7984375
0.387,0.0409375,-0.798125
0.388,0.0409375,-0.798125
0.389,0.0409375,-0.798125
0.39,0.04125,-0.798125
0.391,0.04125,-0.798125
0.392,0.0409375,-0.7978125
0.393,0.0409375,-0.7975
0.394,0.0409375,-0.7975
0.395,0.0409375,-0.7971875
0.396,0.040625,-0.7971875
0.397,0.040625,-0.7965625
0.398,0.040625,-0.79625
0.399,0.0403125,-0.7959375
0.4,0.0403125,-0.795625
0.401,0.04,-0.795
0.402,0.0396875,-0.7946875
0.403,0.0396875,-0.794375
0.404,0.0396875,-0.7940625
0.405,0.039375,-0.7934375
0.406,0.0390625,-0.793125
0.407,0.03875,-0.7928125
0.408,0.03875,-0.7925
0.409,0.0384375,-0.791875
0.41,0.038125,-0.7915625
0.411,0.038125,-0.7909375
0.412,0.0375,-0.790625
0.413,0.0371875,-0.7896875
0.414,0.0371875,-0.7890625
0.415,0.036875,-0.78875
0.416,0.0365625,-0.7878125
0.417,0.03625,-0.786875
0.418,0.0359375,-0.7865625
0.419,0.035625,-0.785625
0.42,0.0353125,-0.7846875
0.421,0.035,-0.784375
0.422,0.035,-0.7834375
0.423,0.0346875,-0.7825
0.424,0.034375,-0.781875
0.425,0.034375,-0.7815625
0.426,0.0340625,-0.780625
0.427,0.03375,-0.7796875
0.428,0.03375,-0.779375
0.429,0.0334375,-0.7784375
0.43,0.0334375,-0.7775
0.431,0.033125,-0.776875
0.432,0.0328125,-0.775625
0.433,0.0328125,-0.7746875
0.434,0.0325,-0.77375
0.435,0.0325,-0.7728125
0.436,0.0321875,-0.7715625
0.437,0.0321875,-0.7703125
0.438,0.0321875,-0.769375
0.439,0.031875,-0.768125
0.44,0.031875,-0.766875
0.441,0.031875,-0.7659375
0.442,0.031875,-0.7646875
0.443,0.031875,-0.7634375
0.444,0.031875,-0.7625
0.445,0.031875,-0.76125
0.446,0.031875,-0.7603125
0.447,0.031875,-0.759375
0.448,0.031875,-0.758125
0.449,0.031875,-0.7571875
0.45,0.0321875,-0.7559375
0.451,0.0321875,-0.7546875
0.452,0.0321875,-0.7534375
0.453,0.0325,-0.7521875
0.454,0.0325,-0.7509375
0.455,0.0325,-0.7496875
0.456,0.0328125,-0.7484375
0.457,0.0328125,-0.7471875
0.458,0.033125,-0.7459375
0.459,0.033125,-0.744375
0.46,0.0334375,-0.743125
0.461,0.03375,-0.741875
0.462,0.03375,-0.740625
0.463,0.0340625,-0.7396875
0.464,0.034375,-0.7384375
0.465,0.034375,-0.7371875
0.466,0.0346875,-0.73625
0.467,0.0353125,-0.7353125
0.468,0.035625,-0.7340625
0.469,0.035625,-0.733125
0.47,0.0359375,-0.7321875
0.471,0.03625,-0.7309375
0.472,0.0365625,-0.73
0.473,0.036875,-0.72875
0.474,0.0371875,-0.7275
0.475,0.0375,-0.7265625
0.476,0.0378125,-0.7253125
0.477,0.0378125,-0.7240625
0.478,0.0384375,-0.7228125
0.479,0.0384375,-0.721875
0.48,0.03875,-0.720625
0.481,0.0390625,-0.719375
0.482,0.0390625,-0.7184375
0.483,0.039375,-0.7171875
0.484,0.0396875,-0.7159375
0.485,0.04,-0.715
0.486,0.04,-0.7140625
0.487,0.0403125,-0.7128125
0.488,0.040625,-0.7115625
0.489,0.0409375,-0.710625
0.49,0.0409375,-0.709375
0.491,0.04125,-0.708125
0.492,0.04125,-0.7065625
0.493,0.04125,-0.7053125
0.494,0.0415625,-0.70375
0.495,0.0415625,-0.7021875
0.496,0.0415625,-0.7009375
0.497,0.0415625,-0.6990625
0.498,0.0415625,-0.6975
0.499,0.0415625,-0.6959375
0.5,0.0415625,-0.694375
0.501,0.0415625,-0.6925
0.502,0.0415625,-0.6909375
0.503,0.04125,-0.689375
0.504,0.04125,-0.6875
0.505,0.04125,-0.6859375
0.506,0.04125,-0.6840625
0.507,0.04125,-0.6825
0.508,0.04125,-0.6809375
0.509,0.04125,-0.67875
0.51,0.04125,-0.6771875
0.511,0.04125,-0.6753125
0.512,0.04125,-0.673125
0.513,0.04125,-0.6715625
0.514,0.04125,-0.669375
0.515,0.0409375,-0.6671875
0.516,0.0409375,-0.6653125
0.517,0.0409375,-0.663125
0.518,0.0409375,-0.6609375
0.519,0.0409375,-0.6590625
0.52,0.0409375,-0.656875
0.521,0.0409375,-0.655
0.522,0.0409375,-0.6528125
0.523,0.04125,-0.6509375
0.524,0.04125,-0.64875
0.525,0.04125,-0.6465625
0.526,0.04125,-0.645
0.527,0.04125,-0.6428125
0.528,0.04125,-0.640625
0.529,0.04125,-0.6384375
0.53,0.04125,-0.6365625
0.531,0.04125,-0.634375
0.532,0.0415625,-0.6321875
0.533,0.0415625,-0.63
0.534,0.0415625,-0.6278125
0.535,0.0415625,-0.6253125
0.536,0.0415625,-0.6228125
0.537,0.0415625,-0.620625
0.538,0.0415625,-0.618125
0.539,0.0415625,-0.615625
0.54,0.0415625,-0.6134375
0.541,0.0415625,-0.6109375
0.542,0.041875,-0.6084375
0.543,0.041875,-0.60625
0.544,0.041875,-0.60375
0.545,0.041875,-0.6015625
0.546,0.0421875,-0.599375
0.547,0.0421875,-0.596875
0.548,0.0421875,-0.5946875
0.549,0.0421875,-0.5921875
0.55,0.0425,-0.59
0.551,0.0425,-0.5875
0.552,0.0425,-0.585
0.553,0.0425,-0.5825
0.554,0.0425,-0.58
0.555,0.0425,-0.5771875
0.556,0.0425,-0.5746875
0.557,0.0425,-0.5721875
0.558,0.0428125,-0.569375
0.559,0.0428125,-0.566875
0.56,0.0428125,-0.564375
0.561,0.0428125,-0.5615625
0.562,0.0428125,-0.5590625
0.563,0.0428125,-0.55625
0.564,0.0428125,-0.55375
0.565,0.0428125,-0.55125
0.566,0.0428125,-0.54875
0.567,0.0428125,-0.54625
0.568,0.0428125,-0.5434375
0.569,0.0428125,-0.5409375
0.57,0.0428125,-0.5384375
0.571,0.0425,-0.5353125
0.572,0.0425,-0.5328125
0.573,0.0425,-0.53
0.574,0.0425,-0.5271875
0.575,0.0425,-0.524375
0.576,0.0421875,-0.52125
0.577,0.0421875,-0.5184375
0.578,0.0421875,-0.515625
0.579,0.041875,-0.5128125
0.58,0.041875,-0.5096875
0.581,0.041875,-0.506875
0.582,0.0415625,-0.50375
0.583,0.0415625,-0.5009375
0.584,0.0415625,-0.498125
0.585,0.04125,-0.4953125
0.586,0.04125,-0.4921875
0.587,0.04125,-0.4896875
0.588,0.04125,-0.4865625
0.589,0.04125,-0.48375
0.59,0.0409375,-0.4809375
0.591,0.0409375,-0.4778125
0.592,0.0409375,-0.4746875
0.593,0.0409375,-0.4715625
0.594,0.0409375,-0.46875
0.595,0.0409375,-0.465625
0.596,0.0409375,-0.4625
0.597,0.0409375,-0.459375
0.598,0.0409375,-0.4559375
0.599,0.0409375,-0.4528125
0.6,0.0409375,-0.45
0.601,0.0409375,-0.446875
0.602,0.0409375,-0.4434375
0.603,0.0409375,-0.440625
0.604,0.0409375,-0.4378125
0.605,0.0409375,-0.4346875
0.606,0.0409375,-0.43125
0.607,0.0409375,-0.4284375
0.608,0.0409375,-0.4253125
0.609,0.0409375,-0.4221875
0.61,0.0409375,-0.4190625
0.611,0.0409375,-0.41625
0.612,0.0409375,-0.4128125
0.613,0.0409375,-0.4096875
0.614,0.0409375,-0.406875
0.615,0.040625,-0.4034375
0.616,0.040625,-0.4
0.617,0.040625,-0.3971875
0.618,0.040625,-0.39375
0.619,0.0403125,-0.390625
0.62,0.0403125,-0.3871875
0.621,0.0403125,-0.3840625
0.622,0.04,-0.38125
0.623,0.04,-0.3778125
0.624,0.04,-0.375
0.625,0.0396875,-0.3715625
0.626,0.0396875,-0.36875
0.627,0.039375,-0.365625
0.628,0.039375,-0.3628125
0.629,0.0390625,-0.359375
0.63,0.0390625,-0.3565625
0.631,0.03875,-0.3534375
0.632,0.0384375,-0.3503125
0.633,0.038125,-0.3471875
0.634,0.038125,-0.34375
0.635,0.0378125,-0.340625
0.636,0.0375,-0.3371875
0.637,0.0375,-0.3340625
0.638,0.0371875,-0.330625
0.639,0.036875,-0.3271875
0.64,0.036875,-0.32375
0.641,0.0365625,-0.320625
0.642,0.03625,-0.3171875
0.643,0.0359375,-0.31375
0.644,0.0359375,-0.3103125
0.645,0.035625,-0.306875
0.646,0.035625,-0.30375
0.647,0.035625,-0.3003125
0.648,0.0353125,-0.296875
0.649,0.0353125,-0.2934375
0.65,0.035,-0.29
0.651,0.035,-0.2865625
0.652,0.0346875,-0.2828125
0.653,0.0346875,-0.2790625
0.654,0.034375,-0.275625
0.655,0.034375,-0.271875
0.656,0.0340625,-0.268125
0.657,0.0340625,-0.264375
0.658,0.03375,-0.260625
0.659,0.03375,-0.256875
0.66,0.03375,-0.253125
0.661,0.0334375,-0.2490625
0.662,0.0334375,-0.2453125
0.663,0.0334375,-0.241875
0.664,0.033125,-0.238125
0.665,0.033125,-0.234375
0.666,0.033125,-0.230625
0.667,0.033125,-0.226875
0.668,0.033125,-0.2234375
0.669,0.033125,-0.2196875
0.67,0.033125,-0.2159375
0.671,0.033125,-0.2121875
0.672,0.033125,-0.2084375
0.673,0.033125,-0.2046875
0.674,0.033125,-0.2009375
0.675,0.033125,-0.1971875
0.676,0.0334375,-0.1934375
0.677,0.0334375,-0.189375
0.678,0.0334375,-0.1859375
0.679,0.0334375,-0.181875
0.68,0.0334375,-0.178125
0.681,0.0334375,-0.174375
0.682,0.03375,-0.170625
0.683,0.03375,-0.1671875
0.684,0.03375,-0.1634375
0.685,0.0340625,-0.16
0.686,0.0340625,-0.15625
0.687,0.0340625,-0.1525
0.688,0.034375,-0.1490625
0.689,0.034375,-0.1453125
0.69,0.034375,-0.141875
0.691,0.0346875,-0.138125
0.692,0.0346875,-0.134375
0.693,0.035,-0.130625
0.694,0.035,-0.126875
0.695,0.035,-0.123125
0.696,0.035,-0.119375
0.697,0.035,-0.1153125
0.698,0.035,-0.1115625
0.699,0.035,-0.1075
0.7,0.035,-0.10375
0.701,0.035,-0.1
0.702,0.035,-0.0959375
0.703,0.035,-0.0921875
0.704,0.035,-0.088125
0.705,0.035,-0.0840625
0.706,0.0353125,-0.0803125
0.707,0.0353125,-0.07625
0.708,0.035,-0.0725
0.709,0.035,-0.06875
0.71,0.035,-0.064375
0.711,0.035,-0.060625
0.712,0.035,-0.05625
0.713,0.035,-0.0521875
0.714,0.035,-0.048125
0.715,0.035,-0.04375
0.716,0.035,-0.039375
0.717,0.035,-0.0353125
0.718,0.0346875,-0.03125
0.719,0.0346875,-0.0265625
0.72,0.0346875,-0.0225
0.721,0.0346875,-0.0184375
0.722,0.0346875,-0.0140625
0.723,0.0346875,-0.0096875
0.724,0.0346875,-0.005625
0.725,0.0346875,-0.0015625
0.726,0.0346875,0.0028125
0.727,0.0346875,0.006875
0.728,0.035,0.0109375
0.729,0.035,0.0153125
0.73,0.035,0.019375
0.731,0.035,0.0234375
0.732,0.035,0.0278125
0.733,0.035,0.031875
0.734,0.035,0.03625
0.735,0.0353125,0.0403125
0.736,0.0353125,0.0446875
0.737,0.035,0.0490625
0.738,0.035,0.0534375
0.739,0.035,0.0575
0.74,0.035,0.061875
0.741,0.035,0.06625
0.742,0.035,0.0703125
0.743,0.035,0.0746875
0.744,0.035,0.07875
0.745,0.035,0.0828125
0.746,0.035,0.0871875
0.747,0.035,0.09125
0.748,0.035,0.095625
0.749,0.0346875,0.0996875
0.75,0.0346875,0.1040625
0.751,0.0346875,0.108125
0.752,0.034375,0.1121875
0.753,0.034375,0.1165625
0.754,0.0340625,0.12125
0.755,0.0340625,0.1253125
0.756,0.03375,0.129375
0.757,0.0334375,0.1340625
0.758,0.0334375,0.138125
0.759,0.0334375,0.1428125
0.76,0.033125,0.1471875
0.761,0.0328125,0.15125
0.762,0.0325,0.1559375
0.763,0.0325,0.16
0.764,0.0321875,0.1640625
0.765,0.0321875,0.1684375
0.766,0.0321875,0.1725
0.767,0.031875,0.176875
0.768,0.031875,0.1809375
0.769,0.031875,0.185
0.77,0.0315625,0.1890625
0.771,0.0315625,0.1934375
0.772,0.0315625,0.1975
0.773,0.0315625,0.2015625
0.774,0.0315625,0.205625
0.775,0.0315625,0.21
0.776,0.0315625,0.2140625
0.777,0.0315625,0.218125
0.778,0.0315625,0.2225
0.779,0.031875,0.2265625
0.78,0.031875,0.230625
0.781,0.031875,0.2346875
0.782,0.031875,0.23875
0.783,0.031875,0.2428125
0.784,0.0321875,0.2465625
0.785,0.0321875,0.250625
0.786,0.0321875,0.2546875
0.787,0.0325,0.2584375
0.788,0.0325,0.2621875
0.789,0.0325,0.26625
0.79,0.0328125,0.27
0.791,0.0328125,0.2740625
0.792,0.0328125,0.2778125
0.793,0.0328125,0.281875
0.794,0.0328125,0.2859375
0.795,0.0328125,0.29
0.796,0.0328125,0.29375
0.797,0.0328125,0.2978125
0.798,0.0328125,0.301875
0.799,0.0328125,0.305625
0.8,0.0328125,0.3096875
0.801,0.0328125,0.31375
0.802,0.0325,0.3175
0.803,0.0325,0.3215625
0.804,0.0325,0.3253125
0.805,0.0325,0.3290625
0.806,0.0325,0.3328125
0.807,0.0325,0.3365625
0.808,0.0321875,0.3403125
0.809,0.0321875,0.3440625
0.81,0.0321875,0.3478125
0.811,0.0321875,0.3515625
0.812,0.031875,0.3553125
0.813,0.031875,0.3590625
0.814,0.031875,0.3628125
0.815,0.031875,0.3665625
0.816,0.0315625,0.3703125
0.817,0.0315625,0.3740625
0.818,0.0315625,0.3778125
0.819,0.0315625,0.3815625
0.82,0.03125,0.385
0.821,0.03125,0.38875
0.822,0.03125,0.3921875
0.823,0.03125,0.3959375
0.824,0.03125,0.399375
0.825,0.03125,0.4028125
0.826,0.03125,0.40625
0.827,0.0309375,0.4096875
0.828,0.0309375,0.4128125
0.829,0.0309375,0.41625
0.83,0.0309375,0.4196875
0.831,0.0309375,0.423125
0.832,0.030625,0.42625
0.833,0.030625,0.4296875
0.834,0.030625,0.433125
0.835,0.0303125,0.4365625
0.836,0.03,0.4396875
0.837,0.0296875,0.443125
0.838,0.0296875,0.44625
0.839,0.029375,0.4496875
0.84,0.029375,0.453125
0.841,0.0290625,0.45625
0.842,0.0284375,0.4596875
0.843,0.0284375,0.4628125
0.844,0.0278125,0.4659375
0.845,0.0278125,0.4690625
0.846,0.0271875,0.4725
0.847,0.026875,0.4753125
0.848,0.0265625,0.4784375
0.849,0.02625,0.4815625
0.85,0.025625,0.4846875
0.851,0.0253125,0.4878125
0.852,0.025,0.4909375
0.853,0.024375,0.4940625
0.854,0.0240625,0.496875
0.855,0.0234375,0.5003125
0.856,0.023125,0.5034375
0.857,0.0225,0.50625
0.858,0.0221875,0.5096875
0.859,0.0215625,0.5125
0.86,0.02125,0.515625
0.861,0.020625,0.51875
0.862,0.0203125,0.521875
0.863,0.0196875,0.5246875
0.864,0.019375,0.5278125
0.865,0.0190625,0.530625
0.866,0.01875,0.5334375
0.867,0.018125,0.53625
0.868,0.018125,0.5390625
0.869,0.0175,0.5421875
0.87,0.0175,0.5446875
0.871,0.016875,0.5475
0.872,0.0165625,0.5503125
0.873,0.0165625,0.553125
0.874,0.01625,0.5559375
0.875,0.01625,0.55875
0.876,0.0159375,0.56125
0.877,0.015625,0.5640625
0.878,0.015625,0.566875
0.879,0.0153125,0.569375
0.88,0.0153125,0.5721875
0.881,0.0153125,0.5746875
0.882,0.015,0.5771875
0.883,0.015,0.58
0.884,0.015,0.5825
0.885,0.015,0.5846875
0.886,0.015,0.5871875
0.887,0.015,0.5896875
0.888,0.015,0.591875
0.889,0.015,0.594375
0.89,0.015,0.5965625
0.891,0.015,0.5990625
0.892,0.015,0.6015625
0.893,0.015,0.60375
0.894,0.015,0.60625
0.895,0.015,0.6084375
0.896,0.015,0.6109375
0.897,0.0146875,0.6134375
0.898,0.0146875,0.615625
0.899,0.0146875,0.618125
0.9,0.0146875,0.6203125
0.901,0.0146875,0.6228125
0.902,0.0146875,0.625
0.903,0.0146875,0.6271875
0.904,0.0146875,0.6296875
0.905,0.014375,0.6315625
0.906,0.014375,0.63375
0.907,0.014375,0.63625
0.908,0.014375,0.6384375
0.909,0.014375,0.6403125
0.91,0.0140625,0.6428125
0.911,0.0140625,0.645
0.912,0.0140625,0.6471875
0.913,0.01375,0.649375
0.914,0.01375,0.6515625
0.915,0.0134375,0.65375
0.916,0.0134375,0.6559375
0.917,0.013125,0.6584375
0.918,0.013125,0.6603125
0.919,0.0128125,0.6625
0.92,0.0128125,0.665
0.921,0.0125,0.6671875
0.922,0.0121875,0.669375
0.923,0.0121875,0.6715625
0.924,0.0121875,0.6734375
0.925,0.011875,0.675625
0.926,0.0115625,0.6775
0.927,0.01125,0.6796875
0.928,0.01125,0.681875
0.929,0.0109375,0.68375
0.93,0.0109375,0.685625
0.931,0.010625,0.6878125
0.932,0.0103125,0.6896875
0.933,0.0103125,0.6915625
0.934,0.01,0.69375
0.935,0.009375,0.695625
0.936,0.009375,0.6978125
0.937,0.0090625,0.6996875
0.938,0.00875,0.7015625
0.939,0.0084375,0.70375
0.94,0.008125,0.7053125
0.941,0.0078125,0.7071875
0.942,0.0075,0.709375
0.943,0.0071875,0.71125
0.944,0.006875,0.7128125
0.945,0.0065625,0.715
0.946,0.00625,0.7165625
0.947,0.0059375,0.7184375
0.948,0.005625,0.72
0.949,0.0053125,0.7215625
0.95,0.0053125,0.7234375
0.951,0.0046875,0.725
0.952,0.004375,0.726875
0.953,0.004375,0.72875
0.954,0.00375,0.7303125
0.955,0.00375,0.731875
0.956,0.0034375,0.73375
0.957,0.003125,0.735625
0.958,0.003125,0.7371875
0.959,0.0025,0.73875
0.96,0.0025,0.740625
0.961,0.0021875,0.7421875
0.962,0.0021875,0.7440625
0.963,0.0021875,0.745625
0.964,0.001875,0.7475
0.965,0.001875,0.7490625
0.966,0.001875,0.750625
0.967,0.001875,0.7525
0.968,0.001875,0.7540625
0.969,0.001875,0.7559375
0.97,0.001875,0.7575
0.971,0.001875,0.7590625
0.972,0.001875,0.7609375
0.973,0.001875,0.7628125
0.974,0.001875,0.764375
0.975,0.0021875,0.7665625
0.976,0.0021875,0.768125
0.977,0.0021875,0.7703125
0.978,0.0025,0.771875
0.979,0.0025,0.7740625
0.98,0.0028125,0.775625
0.981,0.0028125,0.7778125
0.982,0.003125,0.779375
0.983,0.003125,0.78125
0.984,0.0034375,0.7828125
0.985,0.00375,0.785
0.986,0.00375,0.7865625
0.987,0.0040625,0.7884375
0.988,0.004375,0.79
0.989,0.004375,0.791875
0.99,0.0046875,0.7934375
0.991,0.005,0.7953125
0.992,0.005,0.796875
0.993,0.0053125,0.79875
0.994,0.0053125,0.8003125
0.995,0.0053125,0.801875
0.996,0.005625,0.80375
0.997,0.005625,0.805
0.998,0.0059375,0.806875
0.999,0.0059375,0.8084375
1,0.0059375,0.81
1.001,0.0059375,0.81125
1.002,0.00625,0.8125
1.003,0.00625,0.8140625
1.004,0.00625,0.8153125
1.005,0.00625,0.8165625
1.006,0.00625,0.8175
1.007,0.0065625,0.81875
1.008,0.0065625,0.82
1.009,0.0065625,0.8209375
1.01,0.0065625,0.8221875
1.011,0.0065625,0.8228125
1.012,0.0065625,0.8240625
1.013,0.0065625,0.825
1.014,0.00625,0.8259375
1.015,0.00625,0.826875
1.016,0.00625,0.8278125
1.017,0.00625,0.82875
1.018,0.00625,0.8296875
1.019,0.0059375,0.8303125
1.02,0.0059375,0.83125
1.021,0.0059375,0.831875
1.022,0.005625,0.8328125
1.023,0.005625,0.833125
1.024,0.005625,0.8340625
1.025,0.005625,0.834375
1.026,0.0053125,0.8353125
1.027,0.0053125,0.835625
1.028,0.0053125,0.83625
1.029,0.005,0.8365625
1.03,0.005,0.8371875
1.031,0.005,0.8378125
1.032,0.005,0.8384375
1.033,0.0046875,0.83875
1.034,0.0046875,0.839375
1.035,0.0046875,0.8396875
1.036,0.004375,0.840625
1.037,0.004375,0.8409375
1.038,0.004375,0.84125
1.039,0.0040625,0.8421875
1.04,0.0040625,0.8425
1.041,0.0040625,0.843125
1.042,0.00375,0.8434375
1.043,0.00375,0.8440625
1.044,0.0034375,0.844375
1.045,0.0034375,0.845
1.046,0.0034375,0.8453125
1.047,0.003125,0.8459375
1.048,0.003125,0.84625
1.049,0.0028125,0.846875
1.05,0.0028125,0.8471875
1.051,0.0025,0.8475
1.052,0.0025,0.8484375
1.053,0.0021875,0.84875
1.054,0.001875,0.8490625
1.055,0.001875,0.85
1.056,0.0015625,0.8503125
1.057,0.00125,0.8509375
1.058,0.00125,0.851875
1.059,0.0009375,0.8525
1.06,0.000625,0.8528125
1.061,0.000625,0.85375
1.062,0,0.8540625
1.063,0,0.854375
1.064,-0.0003125,0.8553125
1.065,-0.000625,0.855625
1.066,-0.000625,0.85625
1.067,-0.0009375,0.8565625
1.068,-0.0009375,0.8571875
1.069,-0.00125,0.8575
1.07,-0.0015625,0.858125
1.071,-0.001875,0.8584375
1.072,-0.001875,0.85875
1.073,-0.0021875,0.859375
1.074,-0.0025,0.859375
1.075,-0.0025,0.86
1.076,-0.0028125,0.8603125
1.077,-0.0028125,0.860625
1.078,-0.003125,0.860625
1.079,-0.0034375,0.8609375
1.08,-0.0034375,0.86125
1.081,-0.00375,0.86125
1.082,-0.00375,0.8615625
1.083,-0.00375,0.8615625
1.084,-0.0040625,0.8615625
1.085,-0.0040625,0.8615625
1.086,-0.0040625,0.86125
1.087,-0.004375,0.86125
1.088,-0.004375,0.8609375
1.089,-0.004375,0.8609375
1.09,-0.004375,0.8609375
1.091,-0.004375,0.860625
1.092,-0.0046875,0.8603125
1.093,-0.0046875,0.86
1.094,-0.0046875,0.86
1.095,-0.005,0.8596875
1.096,-0.005,0.859375
1.097,-0.0053125,0.8590625
1.098,-0.005625,0.85875
1.099,-0.005625,0.85875
1.1,-0.005625,0.858125
1.101,-0.0059375,0.8578125
1.102,-0.00625,0.8575
1.103,-0.00625,0.8571875
1.104,-0.0065625,0.8565625
1.105,-0.006875,0.8559375
1.106,-0.006875,0.855625
1.107,-0.0075,0.8553125
1.108,-0.0075,0.854375
1.109,-0.0078125,0.8540625
1.11,-0.008125,0.8534375
1.111,-0.008125,0.8528125
1.112,-0.00875,0.8525
1.113,-0.00875,0.8515625
1.114,-0.0090625,0.85125
1.115,-0.009375,0.8503125
1.116,-0.0096875,0.85
1.117,-0.01,0.8490625
1.118,-0.0103125,0.848125
1.119,-0.010625,0.8475
1.12,-0.0109375,0.846875
1.121,-0.01125,0.8459375
1.122,-0.01125,0.845
1.123,-0.011875,0.844375
1.124,-0.0121875,0.8434375
1.125,-0.0121875,0.8421875
1.126,-0.0125,0.84125
1.127,-0.0128125,0.8403125
1.128,-0.0128125,0.8390625
1.129,-0.013125,0.838125
1.13,-0.013125,0.836875
1.131,-0.0134375,0.8359375
1.132,-0.01375,0.8346875
1.133,-0.01375,0.8334375
1.134,-0.0140625,0.8325
1.135,-0.0140625,0.83125
1.136,-0.014375,0.8303125
1.137,-0.014375,0.829375
1.138,-0.0146875,0.828125
1.139,-0.0146875,0.8271875
1.14,-0.0146875,0.8259375
1.141,-0.015,0.8246875
1.142,-0.015,0.82375
1.143,-0.0153125,0.8225
1.144,-0.0153125,0.8215625
1.145,-0.0153125,0.8203125
1.146,-0.015625,0.8190625
1.147,-0.015625,0.8178125
1.148,-0.0159375,0.8165625
1.149,-0.0159375,0.815625
1.15,-0.0159375,0.814375
1.151,-0.01625,0.813125
1.152,-0.01625,0.8121875
1.153,-0.01625,0.8109375
1.154,-0.0165625,0.8096875
1.155,-0.0165625,0.80875
1.156,-0.016875,0.8078125
1.157,-0.016875,0.8065625
1.158,-0.0171875,0.805625
1.159,-0.0171875,0.8046875
1.16,-0.0175,0.8034375
1.161,-0.0175,0.8025
1.162,-0.0178125,0.80125
1.163,-0.018125,0.8
1.164,-0.018125,0.7990625
1.165,-0.0184375,0.7978125
1.166,-0.0184375,0.7965625
1.167,-0.01875,0.795625
1.168,-0.01875,0.794375
1.169,-0.0190625,0.793125
1.17,-0.0190625,0.791875
1.171,-0.019375,0.790625
1.172,-0.019375,0.789375
1.173,-0.0196875,0.788125
1.174,-0.0196875,0.786875
1.175,-0.02,0.7859375
1.176,-0.0203125,0.7846875
1.177,-0.0203125,0.7834375
1.178,-0.020625,0.7821875
1.179,-0.020625,0.7809375
1.18,-0.0209375,0.779375
1.181,-0.02125,0.778125
1.182,-0.02125,0.776875
1.183,-0.0215625,0.7753125
1.184,-0.021875,0.7740625
1.185,-0.021875,0.7728125
1.186,-0.021875,0.77125
1.187,-0.0221875,0.7696875
1.188,-0.0225,0.768125
1.189,-0.0225,0.766875
1.19,-0.0228125,0.7653125
1.191,-0.023125,0.76375
1.192,-0.023125,0.7625
1.193,-0.0234375,0.76125
1.194,-0.02375,0.7596875
1.195,-0.02375,0.758125
1.196,-0.0240625,0.756875
1.197,-0.024375,0.7553125
1.198,-0.024375,0.7540625
1.199,-0.0246875,0.7525
1.2,-0.025,0.7509375
1.201,-0.0253125,0.7496875
1.202,-0.0253125,0.7484375
1.203,-0.025625,0.7465625
1.204,-0.0259375,0.7453125
1.205,-0.0259375,0.74375
1.206,-0.02625,0.7421875
1.207,-0.0265625,0.7409375
1.208,-0.026875,0.7390625
1.209,-0.026875,0.7378125
1.21,-0.026875,0.73625
1.211,-0.0271875,0.7346875
1.212,-0.0275,0.733125
1.213,-0.0275,0.731875
1.214,-0.0278125,0.7303125
1.215,-0.028125,0.72875
1.216,-0.028125,0.7275
1.217,-0.0284375,0.72625
1.218,-0.0284375,0.7246875
1.219,-0.02875,0.723125
1.22,-0.0290625,0.721875
1.221,-0.029375,0.7203125
1.222,-0.029375,0.7190625
1.223,-0.029375,0.7171875
1.224,-0.0296875,0.7159375
1.225,-0.03,0.714375
1.226,-0.03,0.7128125
1.227,-0.0303125,0.71125
1.228,-0.030625,0.7096875
1.229,-0.030625,0.708125
1.23,-0.03125,0.7065625
1.231,-0.03125,0.705
1.232,-0.0315625,0.70375
1.233,-0.031875,0.701875
1.234,-0.031875,0.7003125
1.235,-0.0325,0.6990625
1.236,-0.0325,0.6975
1.237,-0.033125,0.695625
1.238,-0.0334375,0.694375
1.239,-0.03375,0.6928125
1.24,-0.0340625,0.69125
1.241,-0.034375,0.6896875
1.242,-0.0346875,0.688125
1.243,-0.035,0.6865625
1.244,-0.035625,0.6846875
1.245,-0.0359375,0.683125
1.246,-0.03625,0.68125
1.247,-0.0365625,0.6796875
1.248,-0.0371875,0.6778125
1.249,-0.0375,0.67625
1.25,-0.0378125,0.6746875
1.251,-0.0384375,0.6725
1.252,-0.03875,0.6709375
1.253,-0.0390625,0.669375
1.254,-0.0396875,0.6671875
1.255,-0.04,0.6653125
1.256,-0.0403125,0.66375
1.257,-0.0409375,0.6621875
1.258,-0.04125,0.6603125
1.259,-0.0415625,0.658125
1.26,-0.0421875,0.6565625
1.261,-0.0425,0.654375
1.262,-0.0428125,0.6525
1.263,-0.043125,0.650625
1.264,-0.04375,0.6484375
1.265,-0.04375,0.64625
1.266,-0.044375,0.644375
1.267,-0.044375,0.6425
1.268,-0.0446875,0.6403125
1.269,-0.0453125,0.638125
1.27,-0.0453125,0.63625
1.271,-0.045625,0.6340625
1.272,-0.04625,0.6321875
1.273,-0.04625,0.63
1.274,-0.0465625,0.6278125
1.275,-0.046875,0.6259375
1.276,-0.0471875,0.6240625
1.277,-0.0475,0.6221875
1.278,-0.0475,0.62
1.279,-0.048125,0.6178125
1.28,-0.048125,0.6159375
1.281,-0.0484375,0.61375
1.282,-0.04875,0.611875
1.283,-0.04875,0.6096875
1.284,-0.049375,0.6078125
1.285,-0.049375,0.605625
1.286,-0.0496875,0.60375
1.287,-0.0496875,0.6015625
1.288,-0.0503125,0.5996875
1.289,-0.0503125,0.5975
1.29,-0.050625,0.5953125
1.291,-0.0509375,0.5934375
1.292,-0.0509375,0.59125
1.293,-0.0515625,0.589375
1.294,-0.051875,0.5871875
1.295,-0.051875,0.585625
1.296,-0.0521875,0.5834375
1.297,-0.0525,0.5815625
1.298,-0.0528125,0.579375
1.299,-0.053125,0.5775
1.3,-0.053125,0.575625
1.301,-0.0534375,0.57375
1.302,-0.05375,0.5715625
1.303,-0.05375,0.5696875
1.304,-0.0540625,0.5675
1.305,-0.0540625,0.565625
1.306,-0.0540625,0.5634375
1.307,-0.054375,0.5615625
1.308,-0.054375,0.559375
1.309,-0.054375,0.5575
1.31,-0.054375,0.5553125
1.311,-0.054375,0.5534375
1.312,-0.0540625,0.55125
1.313,-0.0540625,0.549375
1.314,-0.0540625,0.5471875
1.315,-0.05375,0.5453125
1.316,-0.05375,0.543125
1.317,-0.05375,0.54125
1.318,-0.0534375,0.5390625
1.319,-0.053125,0.5375
1.32,-0.053125,0.5353125
1.321,-0.053125,0.533125
1.322,-0.0528125,0.53125
1.323,-0.0525,0.529375
1.324,-0.0525,0.5271875
1.325,-0.051875,0.5253125
1.326,-0.051875,0.523125
1.327,-0.0515625,0.5209375
1.328,-0.05125,0.51875
1.329,-0.05125,0.5165625
1.33,-0.050625,0.5146875
1.331,-0.050625,0.5125
1.332,-0.0503125,0.5103125
1.333,-0.05,0.5084375
1.334,-0.05,0.50625
1.335,-0.0496875,0.504375
1.336,-0.0496875,0.5021875
1.337,-0.0496875,0.5003125
1.338,-0.049375,0.498125
1.339,-0.049375,0.49625
1.34,-0.0496875,0.494375
1.341,-0.0496875,0.4921875
1.342,-0.0496875,0.4903125
1.343,-0.05,0.4884375
1.344,-0.05,0.48625
1.345,-0.05,0.4840625
1.346,-0.050625,0.4821875
1.347,-0.050625,0.48
1.348,-0.0509375,0.478125
1.349,-0.0515625,0.4759375
1.35,-0.0515625,0.4740625
1.351,-0.0521875,0.471875
1.352,-0.0525,0.47
1.353,-0.0528125,0.468125
1.354,-0.053125,0.4659375
1.355,-0.05375,0.464375
1.356,-0.0540625,0.4621875
1.357,-0.054375,0.4603125
1.358,-0.055,0.45875
1.359,-0.0553125,0.4565625
1.36,-0.055625,0.455
1.361,-0.0559375,0.4528125
1.362,-0.0565625,0.45125
1.363,-0.056875,0.449375
1.364,-0.0571875,0.4475
1.365,-0.0575,0.4459375
1.366,-0.0578125,0.4440625
1.367,-0.058125,0.4421875
1.368,-0.058125,0.440625
1.369,-0.0584375,0.4390625
1.37,-0.05875,0.4371875
1.371,-0.0590625,0.435625
1.372,-0.0590625,0.43375
1.373,-0.0590625,0.4321875
1.374,-0.059375,0.430625
1.375,-0.059375,0.4290625
1.376,-0.059375,0.4275
1.377,-0.059375,0.4259375
1.378,-0.059375,0.424375
1.379,-0.059375,0.4228125
1.38,-0.059375,0.42125
1.381,-0.0590625,0.42
1.382,-0.0590625,0.418125
1.383,-0.0590625,0.4165625
1.384,-0.05875,0.4153125
1.385,-0.05875,0.4134375
1.386,-0.0584375,0.411875
1.387,-0.058125,0.4103125
1.388,-0.058125,0.40875
1.389,-0.0578125,0.4071875
1.39,-0.0578125,0.405625
1.391,-0.0575,0.40375
1.392,-0.0571875,0.4021875
1.393,-0.056875,0.400625
1.394,-0.056875,0.39875
1.395,-0.0565625,0.3971875
1.396,-0.05625,0.395625
1.397,-0.0559375,0.39375
1.398,-0.0559375,0.3921875
1.399,-0.055625,0.3903125
1.4,-0.0553125,0.3884375
1.401,-0.0553125,0.386875
1.402,-0.0546875,0.3853125
1.403,-0.0546875,0.383125
1.404,-0.0540625,0.3815625
1.405,-0.0540625,0.379375
1.406,-0.0534375,0.3771875
1.407,-0.053125,0.3753125
1.408,-0.0528125,0.373125
1.409,-0.0521875,0.37125
1.41,-0.051875,0.3690625
1.411,-0.0515625,0.3671875
1.412,-0.0509375,0.365
1.413,-0.050625,0.3628125
1.414,-0.05,0.360625
1.415,-0.0496875,0.3584375
1.416,-0.0490625,0.3565625
1.417,-0.04875,0.354375
1.418,-0.048125,0.3521875
1.419,-0.0475,0.3503125
1.42,-0.0471875,0.348125
1.421,-0.046875,0.3459375
1.422,-0.04625,0.34375
1.423,-0.045625,0.3415625
1.424,-0.0453125,0.339375
1.425,-0.044375,0.336875
1.426,-0.0440625,0.335
1.427,-0.0434375,0.3325
1.428,-0.043125,0.3303125
1.429,-0.0425,0.328125
1.43,-0.0415625,0.325625
1.431,-0.04125,0.3234375
1.432,-0.0409375,0.32125
1.433,-0.04,0.3190625
1.434,-0.0396875,0.316875
1.435,-0.0390625,0.3146875
1.436,-0.03875,0.3125
1.437,-0.0384375,0.3103125
1.438,-0.0378125,0.3084375
1.439,-0.0375,0.3059375
1.44,-0.036875,0.3040625
1.441,-0.0365625,0.301875
1.442,-0.0359375,0.3
1.443,-0.035625,0.2978125
1.444,-0.0353125,0.295625
1.445,-0.035,0.2934375
1.446,-0.0346875,0.2915625
1.447,-0.034375,0.289375
1.448,-0.03375,0.2871875
1.449,-0.0334375,0.285
1.45,-0.0334375,0.283125
1.451,-0.033125,0.2809375
1.452,-0.0328125,0.2790625
1.453,-0.0328125,0.276875
1.454,-0.0325,0.2746875
1.455,-0.0321875,0.273125
1.456,-0.0321875,0.2709375
1.457,-0.0321875,0.2690625
1.458,-0.031875,0.2675
1.459,-0.031875,0.265625
1.46,-0.031875,0.2634375
1.461,-0.031875,0.261875
1.462,-0.031875,0.2596875
1.463,-0.031875,0.258125
1.464,-0.031875,0.25625
1.465,-0.031875,0.2546875
1.466,-0.0321875,0.2525
1.467,-0.0321875,0.2509375
1.468,-0.0325,0.24875
1.469,-0.0325,0.2471875
1.47,-0.0325,0.245625
1.471,-0.0328125,0.2434375
1.472,-0.0328125,0.241875
1.473,-0.033125,0.2403125
1.474,-0.0334375,0.2384375
1.475,-0.0334375,0.236875
1.476,-0.03375,0.235
1.477,-0.0340625,0.2334375
1.478,-0.034375,0.2315625
1.479,-0.034375,0.23
1.48,-0.0346875,0.2284375
1.481,-0.035,0.226875
1.482,-0.035,0.225
1.483,-0.0353125,0.2234375
1.484,-0.035625,0.221875
1.485,-0.035625,0.2203125
1.486,-0.0359375,0.21875
1.487,-0.03625,0.2171875
1.488,-0.03625,0.2153125
1.489,-0.0365625,0.21375
1.49,-0.0365625,0.2121875
1.491,-0.0365625,0.2103125
1.492,-0.036875,0.2090625
1.493,-0.036875,0.2071875
1.494,-0.036875,0.2059375
1.495,-0.036875,0.204375
1.496,-0.0371875,0.2025
1.497,-0.0371875,0.20125
1.498,-0.0371875,0.1996875
1.499,-0.0371875,0.198125
1.5,-0.036875,0.1965625
1.501,-0.036875,0.195
1.502,-0.036875,0.1934375
1.503,-0.036875,0.191875
1.504,-0.0365625,0.1903125
1.505,-0.0365625,0.18875
1.506,-0.03625,0.1871875
1.507,-0.0359375,0.185625
1.508,-0.0359375,0.18375
1.509,-0.035625,0.1821875
1.51,-0.0353125,0.1803125
1.511,-0.035,0.17875
1.512,-0.0346875,0.1771875
1.513,-0.034375,0.1753125
1.514,-0.0340625,0.17375
1.515,-0.03375,0.171875
1.516,-0.0334375,0.1703125
1.517,-0.0328125,0.1684375
1.518,-0.0325,0.166875
1.519,-0.0321875,0.165
1.52,-0.031875,0.163125
1.521,-0.03125,0.1615625
1.522,-0.0309375,0.16
1.523,-0.0303125,0.1578125
1.524,-0.03,0.15625
1.525,-0.029375,0.1546875
1.526,-0.0290625,0.1525
1.527,-0.0284375,0.1509375
1.528,-0.028125,0.14875
1.529,-0.0275,0.1471875
1.53,-0.0271875,0.145
1.531,-0.0265625,0.1434375
1.532,-0.02625,0.141875
1.533,-0.0259375,0.1396875
1.534,-0.025625,0.138125
1.535,-0.025,0.13625
1.536,-0.025,0.134375
1.537,-0.024375,0.1328125
1.538,-0.024375,0.13125
1.539,-0.02375,0.129375
1.54,-0.02375,0.1278125
1.541,-0.0234375,0.12625
1.542,-0.023125,0.124375
1.543,-0.023125,0.1228125
1.544,-0.023125,0.1209375
1.545,-0.0228125,0.119375
1.546,-0.0228125,0.1178125
1.547,-0.0228125,0.11625
1.548,-0.0228125,0.114375
1.549,-0.0228125,0.1128125
1.55,-0.0228125,0.11125
1.551,-0.0228125,0.1096875
1.552,-0.0228125,0.1078125
1.553,-0.023125,0.1065625
1.554,-0.023125,0.105
1.555,-0.023125,0.1034375
1.556,-0.02375,0.101875
1.557,-0.02375,0.1003125
1.558,-0.0240625,0.0990625
1.559,-0.024375,0.0971875
1.56,-0.0246875,0.0959375
1.561,-0.025,0.094375
1.562,-0.0253125,0.0928125
1.563,-0.025625,0.09125
1.564,-0.0259375,0.09
1.565,-0.02625,0.0884375
1.566,-0.0265625,0.086875
1.567,-0.0271875,0.0853125
1.568,-0.0271875,0.0840625
1.569,-0.0278125,0.0825
1.57,-0.0278125,0.080625
1.571,-0.0284375,0.079375
1.572,-0.02875,0.0775
1.573,-0.0290625,0.0759375
1.574,-0.029375,0.0746875
1.575,-0.0296875,0.073125
1.576,-0.0303125,0.0715625
1.577,-0.0303125,0.07
1.578,-0.0309375,0.0684375
1.579,-0.03125,0.066875
1.58,-0.0315625,0.0653125
1.581,-0.0315625,0.0634375
1.582,-0.031875,0.061875
1.583,-0.0321875,0.0596875
1.584,-0.0321875,0.058125
1.585,-0.0321875,0.0559375
1.586,-0.0325,0.0540625
1.587,-0.0325,0.051875
1.588,-0.0325,0.0496875
1.589,-0.0328125,0.0475
1.59,-0.0328125,0.0453125
1.591,-0.0328125,0.0428125
1.592,-0.033125,0.0409375
1.593,-0.033125,0.03875
1.594,-0.033125,0.036875
1.595,-0.0334375,0.035
1.596,-0.03375,0.033125
1.597,-0.0340625,0.0315625
1.598,-0.0340625,0.03
1.599,-0.0346875,0.028125
1.6,-0.035,0.026875
1.601,-0.0353125,0.0253125
1.602,-0.035625,0.02375
1.603,-0.0359375,0.0225
1.604,-0.03625,0.0209375
1.605,-0.0365625,0.019375
1.606,-0.036875,0.0178125
1.607,-0.0371875,0.01625
1.608,-0.0375,0.014375
1.609,-0.0378125,0.013125
1.61,-0.038125,0.0115625
1.611,-0.0384375,0.01
1.612,-0.03875,0.00875
1.613,-0.0390625,0.0075
1.614,-0.039375,0.0065625
1.615,-0.04,0.005625
1.616,-0.0403125,0.0046875
1.617,-0.040625,0.004375
1.618,-0.0409375,0.0034375
1.619,-0.0415625,0.003125
1.62,-0.041875,0.0028125
1.621,-0.0421875,0.0021875
1.622,-0.0425,0.001875
1.623,-0.0428125,0.0009375
1.624,-0.043125,0.000625
1.625,-0.043125,-0.0003125
1.626,-0.043125,-0.00125
1.627,-0.043125,-0.0021875
1.628,-0.0428125,-0.0034375
1.629,-0.0428125,-0.0046875
1.63,-0.0428125,-0.00625
1.631,-0.0421875,-0.0075
1.632,-0.0421875,-0.0090625
1.633,-0.041875,-0.0103125
1.634,-0.0415625,-0.0115625
1.635,-0.04125,-0.0128125
1.636,-0.0409375,-0.0140625
1.637,-0.040625,-0.0153125
1.638,-0.0403125,-0.01625
1.639,-0.04,-0.0171875
1.64,-0.0396875,-0.0184375
1.641,-0.0390625,-0.019375
1.642,-0.03875,-0.020625
1.643,-0.038125,-0.021875
1.644,-0.0378125,-0.023125
1.645,-0.0375,-0.025
1.646,-0.0365625,-0.02625
1.647,-0.0359375,-0.028125
1.648,-0.035625,-0.0296875
1.649,-0.0346875,-0.031875
1.65,-0.03375,-0.0334375
1.651,-0.033125,-0.035625
1.652,-0.0328125,-0.0375
1.653,-0.031875,-0.0390625
1.654,-0.03125,-0.0409375
1.655,-0.030625,-0.0421875
1.656,-0.0303125,-0.0434375
1.657,-0.029375,-0.0446875
1.658,-0.0290625,-0.0459375
1.659,-0.02875,-0.046875
1.66,-0.028125,-0.0478125
1.661,-0.0278125,-0.04875
1.662,-0.0271875,-0.049375
1.663,-0.026875,-0.0503125
1.664,-0.0265625,-0.0509375
1.665,-0.0259375,-0.0521875
1.666,-0.025625,-0.053125
1.667,-0.025,-0.05375
1.668,-0.0246875,-0.055
1.669,-0.024375,-0.05625
1.67,-0.02375,-0.0571875
1.671,-0.0234375,-0.0584375
1.672,-0.0228125,-0.0596875
1.673,-0.0225,-0.060625
1.674,-0.0221875,-0.061875
1.675,-0.0215625,-0.0628125
1.676,-0.0215625,-0.06375
1.677,-0.02125,-0.065
1.678,-0.0209375,-0.065625
1.679,-0.020625,-0.0665625
1.68,-0.020625,-0.0675
1.681,-0.020625,-0.0684375
1.682,-0.020625,-0.069375
1.683,-0.020625,-0.0703125
1.684,-0.0203125,-0.07125
1.685,-0.020625,-0.0725
1.686,-0.020625,-0.07375
1.687,-0.020625,-0.075
1.688,-0.020625,-0.07625
1.689,-0.020625,-0.0775
1.69,-0.020625,-0.0790625
1.691,-0.020625,-0.080625
1.692,-0.0209375,-0.0821875
1.693,-0.0209375,-0.0840625
1.694,-0.0209375,-0.085625
1.695,-0.02125,-0.0871875
1.696,-0.0215625,-0.08875
1.697,-0.021875,-0.0903125
1.698,-0.0221875,-0.091875
1.699,-0.0225,-0.0934375
1.7,-0.023125,-0.095
1.701,-0.0234375,-0.0965625
1.702,-0.02375,-0.0978125
1.703,-0.024375,-0.099375
1.704,-0.025,-0.100625
1.705,-0.0253125,-0.101875
1.706,-0.02625,-0.103125
1.707,-0.0265625,-0.1046875
1.708,-0.0275,-0.1059375
1.709,-0.0278125,-0.106875
1.71,-0.02875,-0.108125
1.711,-0.029375,-0.109375
1.712,-0.0296875,-0.1103125
1.713,-0.030625,-0.1115625
1.714,-0.0309375,-0.1128125
1.715,-0.031875,-0.11375
1.716,-0.0321875,-0.1146875
1.717,-0.033125,-0.115625
1.718,-0.03375,-0.116875
1.719,-0.0340625,-0.1178125
1.72,-0.0346875,-0.11875
1.721,-0.0353125,-0.119375
1.722,-0.035625,-0.120625
1.723,-0.0365625,-0.12125
1.724,-0.036875,-0.1225
1.725,-0.0371875,-0.123125
1.726,-0.0378125,-0.124375
1.727,-0.0384375,-0.125
1.728,-0.03875,-0.1259375
1.729,-0.0390625,-0.126875
1.73,-0.0396875,-0.1278125
1.731,-0.04,-0.12875
1.732,-0.0403125,-0.1296875
1.733,-0.040625,-0.1303125
1.734,-0.0409375,-0.13125
1.735,-0.04125,-0.1321875
1.736,-0.0415625,-0.133125
1.737,-0.041875,-0.13375
1.738,-0.0421875,-0.135
1.739,-0.0421875,-0.135625
1.74,-0.0425,-0.1365625
1.741,-0.0428125,-0.1375
1.742,-0.043125,-0.1384375
1.743,-0.043125,-0.139375
1.744,-0.0434375,-0.1403125
1.745,-0.0434375,-0.14125
1.746,-0.0434375,-0.1421875
1.747,-0.04375,-0.143125
1.748,-0.04375,-0.1440625
1.749,-0.04375,-0.145
1.75,-0.0440625,-0.1459375
1.751,-0.0440625,-0.1471875
1.752,-0.0440625,-0.148125
1.753,-0.0440625,-0.1490625
1.754,-0.0440625,-0.1503125
1.755,-0.044375,-0.15125
1.756,-0.044375,-0.1521875
1.757,-0.044375,-0.1534375
1.758,-0.044375,-0.154375
1.759,-0.044375,-0.155625
1.76,-0.044375,-0.1565625
1.761,-0.0446875,-0.1575
1.762,-0.0446875,-0.15875
1.763,-0.0446875,-0.1596875
1.764,-0.0446875,-0.1609375
1.765,-0.0446875,-0.161875
1.766,-0.0446875,-0.1628125
1.767,-0.0446875,-0.1640625
1.768,-0.044375,-0.1653125
1.769,-0.044375,-0.16625
1.77,-0.044375,-0.1675
1.771,-0.044375,-0.1684375
1.772,-0.044375,-0.1696875
1.773,-0.0440625,-0.170625
1.774,-0.0440625,-0.171875
1.775,-0.0440625,-0.1728125
1.776,-0.04375,-0.17375
1.777,-0.04375,-0.1746875
1.778,-0.04375,-0.1759375
1.779,-0.0434375,-0.176875
1.78,-0.043125,-0.1778125
1.781,-0.0428125,-0.17875
1.782,-0.0428125,-0.1796875
1.783,-0.0425,-0.1803125
1.784,-0.0421875,-0.18125
1.785,-0.041875,-0.1821875
1.786,-0.0415625,-0.183125
1.787,-0.04125,-0.18375
1.788,-0.0409375,-0.184375
1.789,-0.0403125,-0.185
1.79,-0.0396875,-0.1859375
1.791,-0.039375,-0.1865625
1.792,-0.0390625,-0.1875
1.793,-0.038125,-0.1878125
1.794,-0.0378125,-0.18875
1.795,-0.036875,-0.1890625
1.796,-0.03625,-0.1896875
1.797,-0.035625,-0.19
1.798,-0.0346875,-0.1909375
1.799,-0.0340625,-0.19125
1.8,-0.033125,-0.191875
1.801,-0.0325,-0.1921875
1.802,-0.0315625,-0.1928125
1.803,-0.030625,-0.193125
1.804,-0.0296875,-0.1934375
1.805,-0.0290625,-0.1940625
1.806,-0.028125,-0.194375
1.807,-0.0271875,-0.1946875
1.808,-0.02625,-0.195
1.809,-0.0253125,-0.195625
1.81,-0.024375,-0.1959375
1.811,-0.0234375,-0.19625
1.812,-0.0225,-0.1965625
1.813,-0.0215625,-0.1971875
1.814,-0.020625,-0.1975
1.815,-0.0196875,-0.1978125
1.816,-0.01875,-0.198125
1.817,-0.0178125,-0.19875
1.818,-0.0171875,-0.19875
1.819,-0.01625,-0.199375
1.82,-0.015625,-0.1996875
1.821,-0.0146875,-0.2
1.822,-0.01375,-0.2003125
1.823,-0.013125,-0.200625
1.824,-0.0121875,-0.2009375
1.825,-0.011875,-0.20125
1.826,-0.01125,-0.2015625
1.827,-0.0103125,-0.201875
1.828,-0.01,-0.2021875
1.829,-0.0096875,-0.2025
1.83,-0.0090625,-0.2028125
1.831,-0.0084375,-0.203125
1.832,-0.008125,-0.2034375
1.833,-0.0078125,-0.20375
1.834,-0.0071875,-0.2040625
1.835,-0.006875,-0.204375
1.836,-0.0065625,-0.2046875
1.837,-0.00625,-0.205
1.838,-0.00625,-0.2053125
1.839,-0.005625,-0.2059375
1.84,-0.005625,-0.20625
1.841,-0.0053125,-0.2065625
1.842,-0.0053125,-0.206875
1.843,-0.005,-0.2075
1.844,-0.0046875,-0.2078125
1.845,-0.0046875,-0.2084375
1.846,-0.004375,-0.20875
1.847,-0.004375,-0.2090625
1.848,-0.0040625,-0.2096875
1.849,-0.0040625,-0.2103125
1.85,-0.0040625,-0.210625
1.851,-0.00375,-0.2115625
1.852,-0.00375,-0.211875
1.853,-0.0034375,-0.2125
1.854,-0.0034375,-0.2128125
1.855,-0.0034375,-0.2134375
1.856,-0.003125,-0.214375
1.857,-0.003125,-0.2146875
1.858,-0.003125,-0.215625
1.859,-0.0028125,-0.21625
1.86,-0.0028125,-0.216875
1.861,-0.0028125,-0.2178125
1.862,-0.0028125,-0.218125
1.863,-0.0028125,-0.2190625
1.864,-0.0025,-0.219375
1.865,-0.0025,-0.22
1.866,-0.0025,-0.2209375
1.867,-0.0021875,-0.22125
1.868,-0.0021875,-0.221875
1.869,-0.0021875,-0.2225
1.87,-0.0021875,-0.223125
1.871,-0.001875,-0.2240625
1.872,-0.001875,-0.224375
1.873,-0.001875,-0.2253125
1.874,-0.001875,-0.225625
1.875,-0.001875,-0.2265625
1.876,-0.001875,-0.2271875
1.877,-0.0015625,-0.2275
1.878,-0.0015625,-0.2284375
1.879,-0.0015625,-0.22875
1.88,-0.00125,-0.2290625
1.881,-0.00125,-0.23
1.882,-0.00125,-0.2303125
1.883,-0.0009375,-0.23125
1.884,-0.0009375,-0.2315625
1.885,-0.0009375,-0.2321875
1.886,-0.000625,-0.2325
1.887,-0.000625,-0.2334375
1.888,-0.000625,-0.23375
1.889,-0.0003125,-0.234375
1.89,-0.0003125,-0.2353125
1.891,0,-0.235625
1.892,0,-0.23625
1.893,0,-0.236875
1.894,0.0003125,-0.2371875
1.895,0.000625,-0.238125
1.896,0.000625,-0.2384375
1.897,0.000625,-0.239375
1.898,0.0009375,-0.2396875
1.899,0.0009375,-0.2403125
1.9,0.00125,-0.240625
1.901,0.00125,-0.2415625
1.902,0.0015625,-0.2421875
1.903,0.001875,-0.2425
1.904,0.001875,-0.2428125
1.905,0.001875,-0.24375
1.906,0.0021875,-0.2440625
1.907,0.0025,-0.2446875
1.908,0.0025,-0.2453125
1.909,0.0028125,-0.245625
1.91,0.003125,-0.2459375
1.911,0.003125,-0.2465625
1.912,0.00375,-0.246875
1.913,0.00375,-0.2475
1.914,0.0040625,-0.2478125
1.915,0.004375,-0.248125
1.916,0.004375,-0.24875
1.917,0.0046875,-0.24875
1.918,0.005,-0.249375
1.919,0.005,-0.249375
1.92,0.0053125,-0.25
1.921,0.005625,-0.25
1.922,0.005625,-0.2503125
1.923,0.00625,-0.250625
1.924,0.0065625,-0.250625
1.925,0.0065625,-0.25125
1.926,0.0071875,-0.25125
1.927,0.0071875,-0.2515625
1.928,0.0078125,-0.251875
1.929,0.0078125,-0.251875
1.93,0.008125,-0.2525
1.931,0.00875,-0.2528125
1.932,0.00875,-0.2528125
1.933,0.009375,-0.253125
1.934,0.009375,-0.2534375
1.935,0.01,-0.25375
1.936,0.01,-0.2540625
1.937,0.0103125,-0.2540625
1.938,0.0109375,-0.2546875
1.939,0.0109375,-0.2546875
1.94,0.01125,-0.255
1.941,0.0115625,-0.255625
1.942,0.0115625,-0.255625
1.943,0.011875,-0.2559375
1.944,0.0121875,-0.2565625
1.945,0.0125,-0.2565625
1.946,0.0125,-0.256875
1.947,0.0128125,-0.2575
1.948,0.013125,-0.2578125
1.949,0.013125,-0.258125
1.95,0.0134375,-0.2584375
1.951,0.0134375,-0.2590625
1.952,0.01375,-0.259375
1.953,0.0140625,-0.2596875
1.954,0.0140625,-0.2603125
1.955,0.014375,-0.260625
1.956,0.014375,-0.2609375
1.957,0.0146875,-0.26125
1.958,0.0146875,-0.2615625
1.959,0.015,-0.2621875
1.96,0.015,-0.2625
1.961,0.0153125,-0.2625
1.962,0.0153125,-0.2628125
1.963,0.015625,-0.263125
1.964,0.015625,-0.263125
1.965,0.0159375,-0.2634375
1.966,0.0159375,-0.26375
1.967,0.01625,-0.2640625
1.968,0.0165625,-0.2640625
1.969,0.0165625,-0.2640625
1.97,0.0165625,-0.264375
1.971,0.016875,-0.264375
1.972,0.0171875,-0.264375
1.973,0.0175,-0.2646875
1.974,0.0175,-0.2646875
1.975,0.0178125,-0.2646875
1.976,0.018125,-0.2646875
1.977,0.018125,-0.264375
1.978,0.0184375,-0.264375
1.979,0.01875,-0.264375
1.98,0.01875,-0.264375
1.981,0.0190625,-0.264375
1.982,0.019375,-0.2640625
1.983,0.019375,-0.2640625
1.984,0.0196875,-0.2640625
1.985,0.02,-0.26375
1.986,0.02,-0.26375
1.987,0.0203125,-0.26375
1.988,0.020625,-0.26375
1.989,0.0209375,-0.2634375
1.99,0.0209375,-0.2634375
1.991,0.02125,-0.2634375
1.992,0.0215625,-0.2634375
1.993,0.0215625,-0.2634375
1.994,0.021875,-0.2634375
1.995,0.0221875,-0.2634375
1.996,0.0225,-0.2634375
1.997,0.0225,-0.26375
1.998,0.0228125,-0.26375
1.999,0.023125,-0.26375
2,0.023125,-0.2640625
2.001,0.0234375,-0.2640625
2.002,0.0234375,-0.2640625
2.003,0.02375,-0.264375
2.004,0.0240625,-0.2646875
2.005,0.0240625,-0.265
2.006,0.024375,-0.2653125
2.007,0.024375,-0.265625
2.008,0.0246875,-0.2659375
2.009,0.0246875,-0.26625
2.01,0.025,-0.266875
2.011,0.025,-0.2671875
2.012,0.025,-0.2675
2.013,0.0253125,-0.268125
2.014,0.0253125,-0.2684375
2.015,0.025625,-0.2690625
2.016,0.025625,-0.2696875
2.017,0.025625,-0.27
2.018,0.0259375,-0.2703125
2.019,0.0259375,-0.2709375
2.02,0.0259375,-0.27125
2.021,0.02625,-0.2721875
2.022,0.02625,-0.2725
2.023,0.02625,-0.2728125
2.024,0.02625,-0.27375
2.025,0.02625,-0.2740625
2.026,0.02625,-0.275
2.027,0.0265625,-0.275625
2.028,0.0265625,-0.2759375
2.029,0.0265625,-0.276875
2.03,0.0265625,-0.2771875
2.031,0.02625,-0.278125
2.032,0.02625,-0.2784375
2.033,0.02625,-0.2790625
2.034,0.02625,-0.28
2.035,0.02625,-0.2803125
2.036,0.02625,-0.28125
2.037,0.02625,-0.281875
2.038,0.02625,-0.2821875
2.039,0.0259375,-0.283125
2.04,0.0259375,-0.28375
2.041,0.0259375,-0.2840625
2.042,0.025625,-0.285
2.043,0.025625,-0.2853125
2.044,0.025625,-0.285625
2.045,0.0253125,-0.2865625
2.046,0.0253125,-0.286875
2.047,0.0253125,-0.2871875
2.048,0.0253125,-0.2878125
2.049,0.0253125,-0.2884375
2.05,0.025,-0.28875
2.051,0.025,-0.289375
2.052,0.025,-0.2896875
2.053,0.025,-0.29
2.054,0.025,-0.2903125
2.055,0.025,-0.2909375
2.056,0.0253125,-0.2909375
2.057,0.0253125,-0.29125
2.058,0.0253125,-0.2915625
2.059,0.0253125,-0.291875
2.06,0.0253125,-0.291875
2.061,0.0253125,-0.291875
2.062,0.0253125,-0.2921875
2.063,0.025625,-0.2921875
2.064,0.025625,-0.2921875
2.065,0.025625,-0.2921875
2.066,0.0259375,-0.2921875
2.067,0.0259375,-0.2921875
2.068,0.02625,-0.2921875
2.069,0.02625,-0.2921875
2.07,0.0265625,-0.2921875
2.071,0.0265625,-0.2921875
2.072,0.026875,-0.2921875
2.073,0.026875,-0.2921875
2.074,0.0271875,-0.2921875
2.075,0.0271875,-0.2921875
2.076,0.0275,-0.2921875
2.077,0.0275,-0.291875
2.078,0.0275,-0.291875
2.079,0.0278125,-0.291875
2.08,0.0278125,-0.2915625
2.081,0.028125,-0.2915625
2.082,0.028125,-0.2915625
2.083,0.028125,-0.29125
2.084,0.028125,-0.29125
2.085,0.028125,-0.29125
2.086,0.028125,-0.29125
2.087,0.0284375,-0.29125
2.088,0.0284375,-0.29125
2.089,0.0284375,-0.2915625
2.09,0.0284375,-0.2915625
2.091,0.0284375,-0.2915625
2.092,0.0284375,-0.291875
2.093,0.0284375,-0.291875
2.094,0.0284375,-0.291875
2.095,0.0284375,-0.2921875
2.096,0.0284375,-0.2921875
2.097,0.0284375,-0.2925
2.098,0.0284375,-0.2925
2.099,0.0284375,-0.2925
2.1,0.02875,-0.2928125
2.101,0.02875,-0.2928125
2.102,0.02875,-0.293125
2.103,0.02875,-0.293125
2.104,0.02875,-0.2934375
2.105,0.02875,-0.2934375
2.106,0.02875,-0.29375
2.107,0.02875,-0.2940625
2.108,0.02875,-0.2940625
2.109,0.02875,-0.2946875
2.11,0.0290625,-0.2946875
2.111,0.0290625,-0.295
2.112,0.0290625,-0.2953125
2.113,0.0290625,-0.295625
2.114,0.0290625,-0.2959375
2.115,0.0290625,-0.29625
2.116,0.0290625,-0.29625
2.117,0.0290625,-0.296875
2.118,0.0290625,-0.296875
2.119,0.0290625,-0.2971875
2.12,0.0290625,-0.2971875
2.121,0.0290625,-0.2975
2.122,0.0290625,-0.2978125
2.123,0.0290625,-0.2978125
2.124,0.0290625,-0.298125
2.125,0.0290625,-0.2984375
2.126,0.0290625,-0.2984375
2.127,0.0290625,-0.29875
2.128,0.0290625,-0.29875
2.129,0.0290625,-0.2990625
2.13,0.0290625,-0.299375
2.131,0.0290625,-0.299375
2.132,0.0290625,-0.3
2.133,0.0290625,-0.3
2.134,0.0290625,-0.3003125
2.135,0.0290625,-0.3003125
2.136,0.0290625,-0.300625
2.137,0.02875,-0.3009375
2.138,0.02875,-0.3009375
2.139,0.02875,-0.30125
2.14,0.0284375,-0.30125
2.141,0.0284375,-0.3015625
2.142,0.0284375,-0.301875
2.143,0.028125,-0.301875
2.144,0.028125,-0.301875
2.145,0.0278125,-0.3021875
2.146,0.0278125,-0.3025
2.147,0.0278125,-0.3025
2.148,0.0275,-0.303125
2.149,0.0275,-0.303125
2.15,0.0275,-0.3034375
2.151,0.0271875,-0.30375
2.152,0.0271875,-0.30375
2.153,0.0271875,-0.304375
2.154,0.026875,-0.304375
2.155,0.026875,-0.3046875
2.156,0.026875,-0.305
2.157,0.0265625,-0.305
2.158,0.0265625,-0.3053125
2.159,0.02625,-0.305625
2.16,0.02625,-0.3059375
2.161,0.02625,-0.3059375
2.162,0.0259375,-0.3065625
2.163,0.0259375,-0.3065625
2.164,0.025625,-0.306875
2.165,0.025625,-0.3071875
2.166,0.0253125,-0.3075
2.167,0.0253125,-0.3078125
2.168,0.025,-0.308125
2.169,0.025,-0.3084375
2.17,0.025,-0.30875
2.171,0.0246875,-0.309375
2.172,0.0246875,-0.309375
2.173,0.0246875,-0.31
2.174,0.024375,-0.3103125
2.175,0.024375,-0.310625
2.176,0.024375,-0.3109375
2.177,0.024375,-0.31125
2.178,0.024375,-0.3115625
2.179,0.0240625,-0.311875
2.18,0.0240625,-0.3121875
2.181,0.0240625,-0.3125
2.182,0.02375,-0.3128125
2.183,0.02375,-0.313125
2.184,0.0234375,-0.3134375
2.185,0.0234375,-0.3140625
2.186,0.023125,-0.3140625
2.187,0.023125,-0.3146875
2.188,0.023125,-0.315
2.189,0.0228125,-0.3153125
2.19,0.0228125,-0.3159375
2.191,0.0225,-0.31625
2.192,0.0225,-0.3165625
2.193,0.0225,-0.3171875
2.194,0.0221875,-0.3175
2.195,0.0221875,-0.3178125
2.196,0.021875,-0.318125
2.197,0.021875,-0.31875
2.198,0.021875,-0.31875
2.199,0.0215625,-0.3190625
2.2,0.0215625,-0.319375
2.201,0.0215625,-0.319375
2.202,0.0215625,-0.3196875
2.203,0.0215625,-0.32
2.204,0.0215625,-0.32
2.205,0.0215625,-0.3203125
2.206,0.0215625,-0.3203125
2.207,0.021875,-0.3203125
2.208,0.021875,-0.320625
2.209,0.021875,-0.320625
2.21,0.0221875,-0.320625
2.211,0.0221875,-0.320625
2.212,0.0228125,-0.320625
2.213,0.0228125,-0.320625
2.214,0.023125,-0.320625
2.215,0.0234375,-0.320625
2.216,0.02375,-0.3203125
2.217,0.0240625,-0.32
2.218,0.0246875,-0.3196875
2.219,0.025,-0.319375
2.22,0.0253125,-0.3190625
2.221,0.025625,-0.3184375
2.222,0.02625,-0.318125
2.223,0.0265625,-0.3178125
2.224,0.0271875,-0.316875
2.225,0.0275,-0.3165625
2.226,0.0284375,-0.3159375
2.227,0.02875,-0.3153125
2.228,0.0290625,-0.315
2.229,0.0296875,-0.314375
2.23,0.030625,-0.3140625
2.231,0.0309375,-0.313125
2.232,0.03125,-0.3128125
2.233,0.0321875,-0.3125
2.234,0.0325,-0.3115625
2.235,0.0328125,-0.31125
2.236,0.0334375,-0.3109375
2.237,0.0340625,-0.3103125
2.238,0.034375,-0.3096875
2.239,0.035,-0.309375
2.24,0.0353125,-0.30875
2.241,0.035625,-0.3084375
2.242,0.0359375,-0.308125
2.243,0.0365625,-0.3075
2.244,0.036875,-0.3071875
2.245,0.0371875,-0.306875
2.246,0.0375,-0.3065625
2.247,0.0378125,-0.30625
2.248,0.038125,-0.30625
2.249,0.0384375,-0.30625
2.25,0.0384375,-0.3059375
2.251,0.03875,-0.3059375
2.252,0.0390625,-0.30625
2.253,0.039375,-0.30625
2.254,0.039375,-0.30625
2.255,0.0396875,-0.30625
2.256,0.0396875,-0.3065625
2.257,0.0396875,-0.306875
2.258,0.04,-0.306875
2.259,0.04,-0.3071875
2.26,0.04,-0.3075
2.261,0.04,-0.3075
2.262,0.04,-0.308125
2.263,0.04,-0.3084375
2.264,0.04,-0.3084375
2.265,0.04,-0.30875
2.266,0.04,-0.3090625
2.267,0.04,-0.3096875
2.268,0.04,-0.3096875
2.269,0.0396875,-0.3103125
2.27,0.0396875,-0.3103125
2.271,0.0396875,-0.3109375
2.272,0.0396875,-0.31125
2.273,0.0396875,-0.3115625
2.274,0.0396875,-0.311875
2.275,0.039375,-0.311875
2.276,0.039375,-0.3125
2.277,0.0390625,-0.3125
2.278,0.0390625,-0.3128125
2.279,0.03875,-0.3128125
2.28,0.03875,-0.313125
2.281,0.03875,-0.3134375
2.282,0.0384375,-0.3134375
2.283,0.0384375,-0.31375
2.284,0.038125,-0.31375
2.285,0.038125,-0.31375
2.286,0.0378125,-0.3140625
2.287,0.0378125,-0.3140625
2.288,0.0378125,-0.314375
2.289,0.0375,-0.314375
2.29,0.0375,-0.314375
2.291,0.0375,-0.3146875
2.292,0.0371875,-0.3146875
2.293,0.0371875,-0.315
2.294,0.0371875,-0.315
2.295,0.036875,-0.3153125
2.296,0.036875,-0.3153125
2.297,0.036875,-0.3153125
2.298,0.0365625,-0.3153125
2.299,0.0365625,-0.3153125
2.3,0.0365625,-0.315625
2.301,0.0365625,-0.315625
2.302,0.03625,-0.315625
2.303,0.03625,-0.3159375
2.304,0.03625,-0.3159375
2.305,0.0359375,-0.3159375
2.306,0.0359375,-0.31625
2.307,0.035625,-0.31625
2.308,0.035625,-0.3165625
2.309,0.035625,-0.3165625
2.31,0.0353125,-0.316875
2.311,0.0353125,-0.316875
2.312,0.035,-0.3171875
2.313,0.035,-0.3175
2.314,0.035,-0.3175
2.315,0.0346875,-0.3178125
2.316,0.0346875,-0.3178125
2.317,0.034375,-0.3178125
2.318,0.034375,-0.318125
2.319,0.0340625,-0.318125
2.32,0.0340625,-0.318125
2.321,0.03375,-0.318125
2.322,0.03375,-0.318125
2.323,0.0334375,-0.318125
2.324,0.033125,-0.3184375
2.325,0.033125,-0.3184375
2.326,0.0328125,-0.3184375
2.327,0.0328125,-0.3184375
2.328,0.0325,-0.3184375
2.329,0.0321875,-0.3184375
2.33,0.031875,-0.3184375
2.331,0.031875,-0.3184375
2.332,0.0315625,-0.3184375
2.333,0.03125,-0.3184375
2.334,0.03125,-0.3184375
2.335,0.0309375,-0.3184375
2.336,0.030625,-0.3184375
2.337,0.030625,-0.3184375
2.338,0.0303125,-0.3184375
2.339,0.03,-0.3184375
2.34,0.03,-0.3184375
2.341,0.0296875,-0.3184375
2.342,0.0296875,-0.3184375
2.343,0.029375,-0.318125
2.344,0.0290625,-0.318125
2.345,0.02875,-0.318125
2.346,0.02875,-0.318125
2.347,0.0284375,-0.318125
2.348,0.028125,-0.318125
2.349,0.028125,-0.318125
2.35,0.0278125,-0.318125
2.351,0.0278125,-0.318125
2.352,0.0275,-0.318125
2.353,0.0275,-0.318125
2.354,0.0275,-0.318125
2.355,0.0271875,-0.318125
2.356,0.0271875,-0.318125
2.357,0.0271875,-0.318125
2.358,0.026875,-0.318125
2.359,0.026875,-0.318125
2.36,0.0265625,-0.318125
2.361,0.0265625,-0.318125
2.362,0.0265625,-0.318125
2.363,0.02625,-0.318125
2.364,0.02625,-0.318125
2.365,0.02625,-0.3184375
2.366,0.02625,-0.3184375
2.367,0.02625,-0.3184375
2.368,0.0259375,-0.3184375
2.369,0.0259375,-0.31875
2.37,0.0259375,-0.31875
2.371,0.0259375,-0.31875
2.372,0.0259375,-0.3190625
2.373,0.0259375,-0.3190625
2.374,0.0259375,-0.319375
2.375,0.02625,-0.319375
2.376,0.02625,-0.319375
2.377,0.02625,-0.3196875
2.378,0.02625,-0.3196875
2.379,0.02625,-0.3196875
2.38,0.02625,-0.32
2.381,0.02625,-0.32
2.382,0.02625,-0.32
2.383,0.02625,-0.3203125
2.384,0.02625,-0.3203125
2.385,0.02625,-0.3203125
2.386,0.02625,-0.3203125
2.387,0.02625,-0.3203125
2.388,0.0259375,-0.320625
2.389,0.0259375,-0.320625
2.39,0.0259375,-0.320625
2.391,0.0259375,-0.320625
2.392,0.0259375,-0.320625
2.393,0.0259375,-0.3209375
2.394,0.0259375,-0.3209375
2.395,0.0259375,-0.3209375
2.396,0.0259375,-0.3209375
2.397,0.0259375,-0.3209375
2.398,0.0259375,-0.320625
2.399,0.0259375,-0.320625
2.4,0.0259375,-0.320625
2.401,0.0259375,-0.320625
2.402,0.0259375,-0.320625
2.403,0.0259375,-0.320625
2.404,0.0259375,-0.320625
2.405,0.0259375,-0.320625
2.406,0.0259375,-0.320625
2.407,0.0259375,-0.320625
2.408,0.0259375,-0.320625
2.409,0.0259375,-0.320625
2.41,0.0259375,-0.320625
2.411,0.0259375,-0.320625
2.412,0.0259375,-0.320625
2.413,0.0259375,-0.320625
2.414,0.025625,-0.320625
2.415,0.025625,-0.320625
2.416,0.025625,-0.3203125
2.417,0.025625,-0.3203125
2.418,0.025625,-0.3203125
2.419,0.025625,-0.3203125
2.42,0.025625,-0.3203125
2.421,0.025625,-0.32
2.422,0.025625,-0.32
2.423,0.0253125,-0.3196875
2.424,0.0253125,-0.3196875
2.425,0.0253125,-0.3196875
2.426,0.025,-0.319375
2.427,0.0246875,-0.319375
2.428,0.0246875,-0.319375
2.429,0.0240625,-0.3190625
2.43,0.0240625,-0.3190625
2.431,0.0234375,-0.31875
2.432,0.023125,-0.31875
2.433,0.0228125,-0.31875
2.434,0.0221875,-0.3184375
2.435,0.021875,-0.3184375
2.436,0.02125,-0.3184375
2.437,0.0209375,-0.3184375
2.438,0.020625,-0.318125
2.439,0.02,-0.318125
2.44,0.019375,-0.318125
2.441,0.0190625,-0.3178125
2.442,0.018125,-0.3178125
2.443,0.0178125,-0.3178125
2.444,0.016875,-0.3175
2.445,0.0165625,-0.3175
2.446,0.0159375,-0.3171875
2.447,0.015,-0.3171875
2.448,0.0146875,-0.316875
2.449,0.0140625,-0.3165625
2.45,0.013125,-0.3165625
2.451,0.0125,-0.3159375
2.452,0.0115625,-0.3159375
2.453,0.0109375,-0.3153125
2.454,0.010625,-0.315
2.455,0.0096875,-0.3146875
2.456,0.009375,-0.3140625
2.457,0.0084375,-0.31375
2.458,0.008125,-0.313125
2.459,0.0078125,-0.3128125
2.46,0.0071875,-0.311875
2.461,0.0065625,-0.3109375
2.462,0.00625,-0.310625
2.463,0.0059375,-0.3096875
2.464,0.0053125,-0.30875
2.465,0.0053125,-0.308125
2.466,0.0046875,-0.3071875
2.467,0.0046875,-0.30625
2.468,0.004375,-0.305625
2.469,0.0040625,-0.304375
2.47,0.00375,-0.30375
2.471,0.00375,-0.3025
2.472,0.00375,-0.3015625
2.473,0.0034375,-0.300625
2.474,0.0034375,-0.2996875
2.475,0.0034375,-0.29875
2.476,0.003125,-0.2975
2.477,0.003125,-0.2965625
2.478,0.003125,-0.295625
2.479,0.003125,-0.2946875
2.48,0.003125,-0.29375
2.481,0.0034375,-0.2928125
2.482,0.0034375,-0.291875
2.483,0.0034375,-0.2909375
2.484,0.0034375,-0.29
2.485,0.0034375,-0.2890625
2.486,0.0034375,-0.2884375
2.487,0.0034375,-0.2875
2.488,0.0034375,-0.286875
2.489,0.00375,-0.2859375
2.49,0.00375,-0.285
2.491,0.00375,-0.2846875
2.492,0.00375,-0.28375
2.493,0.00375,-0.283125
2.494,0.00375,-0.2825
2.495,0.00375,-0.2821875
2.496,0.00375,-0.28125
2.497,0.00375,-0.280625
2.498,0.0034375,-0.2803125
2.499,0.0034375,-0.28
2.5,0.0034375,-0.2790625
2.501,0.003125,-0.27875
2.502,0.003125,-0.2784375
2.503,0.003125,-0.2778125
2.504,0.0028125,-0.2775
2.505,0.0028125,-0.276875
2.506,0.0025,-0.2765625
2.507,0.0021875,-0.27625
2.508,0.0021875,-0.2759375
2.509,0.001875,-0.2753125
2.51,0.001875,-0.275
2.511,0.0015625,-0.2746875
2.512,0.00125,-0.274375
2.513,0.00125,-0.2740625
2.514,0.0009375,-0.27375
2.515,0.000625,-0.2734375
2.516,0.000625,-0.273125
2.517,0,-0.2728125
2.518,0,-0.2725
2.519,-0.0003125,-0.2725
2.52,-0.000625,-0.271875
2.521,-0.000625,-0.2715625
2.522,-0.0009375,-0.2715625
2.523,-0.00125,-0.2709375
2.524,-0.00125,-0.270625
2.525,-0.00125,-0.270625
2.526,-0.0015625,-0.27
2.527,-0.001875,-0.27
2.528,-0.001875,-0.269375
2.529,-0.001875,-0.2690625
2.53,-0.0021875,-0.26875
2.531,-0.0021875,-0.2684375
2.532,-0.0025,-0.268125
2.533,-0.0025,-0.2678125
2.534,-0.0025,-0.2675
2.535,-0.0025,-0.2671875
2.536,-0.0025,-0.2665625
2.537,-0.0028125,-0.2665625
2.538,-0.0028125,-0.2659375
2.539,-0.0028125,-0.2659375
2.54,-0.0028125,-0.265625
2.541,-0.0028125,-0.265
2.542,-0.0028125,-0.265
2.543,-0.0028125,-0.2646875
2.544,-0.003125,-0.264375
2.545,-0.003125,-0.2640625
2.546,-0.003125,-0.26375
2.547,-0.003125,-0.26375
2.548,-0.0034375,-0.263125
2.549,-0.0034375,-0.263125
2.55,-0.0034375,-0.2628125
2.551,-0.00375,-0.2625
2.552,-0.00375,-0.2625
2.553,-0.0040625,-0.2621875
2.554,-0.0040625,-0.261875
2.555,-0.004375,-0.261875
2.556,-0.004375,-0.2615625
2.557,-0.0046875,-0.26125
2.558,-0.005,-0.26125
2.559,-0.005,-0.2609375
2.56,-0.0053125,-0.260625
2.561,-0.0053125,-0.260625
2.562,-0.005625,-0.26
2.563,-0.0059375,-0.26
2.564,-0.00625,-0.2596875
2.565,-0.00625,-0.259375
2.566,-0.0065625,-0.2590625
2.567,-0.006875,-0.25875
2.568,-0.006875,-0.2584375
2.569,-0.0071875,-0.258125
2.57,-0.0075,-0.2578125
2.571,-0.0075,-0.2575
2.572,-0.0078125,-0.2571875
2.573,-0.008125,-0.256875
2.574,-0.008125,-0.2565625
2.575,-0.0084375,-0.25625
2.576,-0.0084375,-0.2559375
2.577,-0.0084375,-0.2553125
2.578,-0.00875,-0.255
2.579,-0.00875,-0.255
2.58,-0.00875,-0.2546875
2.581,-0.0090625,-0.254375
2.582,-0.0090625,-0.2540625
2.583,-0.0090625,-0.25375
2.584,-0.009375,-0.2534375
2.585,-0.009375,-0.253125
2.586,-0.009375,-0.2528125
2.587,-0.0096875,-0.2525
2.588,-0.0096875,-0.2525
2.589,-0.0096875,-0.251875
2.59,-0.01,-0.251875
2.591,-0.01,-0.2515625
2.592,-0.01,-0.2509375
2.593,-0.01,-0.2509375
2.594,-0.0103125,-0.250625
2.595,-0.0103125,-0.2503125
2.596,-0.0103125,-0.25
2.597,-0.0103125,-0.25
2.598,-0.0103125,-0.249375
2.599,-0.010625,-0.249375
2.6,-0.010625,-0.2490625
2.601,-0.010625,-0.24875
2.602,-0.010625,-0.2484375
2.603,-0.010625,-0.2484375
2.604,-0.0109375,-0.2478125
2.605,-0.0109375,-0.2475
2.606,-0.0109375,-0.2471875
2.607,-0.0109375,-0.246875
2.608,-0.0109375,-0.2465625
2.609,-0.01125,-0.24625
2.61,-0.01125,-0.245625
2.611,-0.01125,-0.2453125
2.612,-0.01125,-0.245
2.613,-0.01125,-0.244375
2.614,-0.01125,-0.2440625
2.615,-0.01125,-0.24375
2.616,-0.01125,-0.2434375
2.617,-0.01125,-0.2428125
2.618,-0.01125,-0.2425
2.619,-0.01125,-0.2421875
2.62,-0.01125,-0.2415625
2.621,-0.01125,-0.24125
2.622,-0.01125,-0.240625
2.623,-0.01125,-0.2403125
2.624,-0.01125,-0.2396875
2.625,-0.01125,-0.239375
2.626,-0.01125,-0.2390625
2.627,-0.01125,-0.2384375
2.628,-0.01125,-0.2378125
2.629,-0.01125,-0.2375
2.63,-0.01125,-0.2365625
2.631,-0.01125,-0.23625
2.632,-0.01125,-0.2359375
2.633,-0.01125,-0.2353125
2.634,-0.01125,-0.234375
2.635,-0.01125,-0.2340625
2.636,-0.01125,-0.2334375
2.637,-0.01125,-0.233125
2.638,-0.01125,-0.2321875
2.639,-0.01125,-0.231875
2.64,-0.0109375,-0.2309375
2.641,-0.0109375,-0.230625
2.642,-0.0109375,-0.2303125
2.643,-0.0109375,-0.229375
2.644,-0.0109375,-0.22875
2.645,-0.0109375,-0.2284375
2.646,-0.0109375,-0.2275
2.647,-0.0109375,-0.2271875
2.648,-0.010625,-0.2265625
2.649,-0.010625,-0.22625
2.65,-0.010625,-0.2253125
2.651,-0.010625,-0.225
2.652,-0.010625,-0.224375
2.653,-0.010625,-0.22375
2.654,-0.0103125,-0.2234375
2.655,-0.0103125,-0.223125
2.656,-0.0103125,-0.2225
2.657,-0.01,-0.2221875
2.658,-0.01,-0.2215625
2.659,-0.01,-0.22125
2.66,-0.0096875,-0.2209375
2.661,-0.0096875,-0.220625
2.662,-0.0096875,-0.22
2.663,-0.009375,-0.22
2.664,-0.009375,-0.2196875
2.665,-0.0090625,-0.2190625
2.666,-0.0090625,-0.21875
2.667,-0.00875,-0.2184375
2.668,-0.00875,-0.218125
2.669,-0.00875,-0.2178125
2.67,-0.0084375,-0.2175
2.671,-0.0084375,-0.2175
2.672,-0.008125,-0.216875
2.673,-0.008125,-0.216875
2.674,-0.0078125,-0.2165625
2.675,-0.0078125,-0.21625
2.676,-0.0075,-0.21625
2.677,-0.0071875,-0.2159375
2.678,-0.0071875,-0.215625
2.679,-0.0071875,-0.215625
2.68,-0.006875,-0.215
2.681,-0.0065625,-0.215
2.682,-0.0065625,-0.2146875
2.683,-0.00625,-0.214375
2.684,-0.0059375,-0.214375
2.685,-0.005625,-0.21375
2.686,-0.005625,-0.21375
2.687,-0.005625,-0.2134375
2.688,-0.005,-0.213125
2.689,-0.005,-0.2128125
2.69,-0.005,-0.2125
2.691,-0.0046875,-0.2121875
2.692,-0.004375,-0.211875
2.693,-0.004375,-0.2115625
2.694,-0.0040625,-0.21125
2.695,-0.00375,-0.2109375
2.696,-0.00375,-0.210625
2.697,-0.0034375,-0.21
2.698,-0.0034375,-0.2096875
2.699,-0.003125,-0.209375
2.7,-0.003125,-0.2090625
2.701,-0.003125,-0.2084375
2.702,-0.0028125,-0.208125
2.703,-0.0028125,-0.2075
2.704,-0.0025,-0.2071875
2.705,-0.0025,-0.206875
2.706,-0.0025,-0.20625
2.707,-0.0021875,-0.2059375
2.708,-0.0021875,-0.2053125
2.709,-0.001875,-0.205
2.71,-0.001875,-0.204375
2.711,-0.001875,-0.2040625
2.712,-0.0015625,-0.2034375
2.713,-0.0015625,-0.203125
2.714,-0.0015625,-0.2025
2.715,-0.0015625,-0.2021875
2.716,-0.00125,-0.2015625
2.717,-0.00125,-0.20125
2.718,-0.00125,-0.2009375
2.719,-0.0009375,-0.200625
2.72,-0.0009375,-0.2
2.721,-0.0009375,-0.2
2.722,-0.0009375,-0.199375
2.723,-0.0009375,-0.1990625
2.724,-0.000625,-0.19875
2.725,-0.000625,-0.1984375
2.726,-0.000625,-0.198125
2.727,-0.000625,-0.198125
2.728,-0.000625,-0.1975
2.729,-0.000625,-0.1975
2.73,-0.0003125,-0.1971875
2.731,-0.0003125,-0.196875
2.732,-0.0003125,-0.196875
2.733,-0.0003125,-0.1965625
2.734,-0.0003125,-0.1965625
2.735,0,-0.19625
2.736,0,-0.1959375
2.737,0,-0.1959375
2.738,0,-0.1959375
2.739,0,-0.195625
2.74,0.0003125,-0.1953125
2.741,0.0003125,-0.195
2.742,0.0003125,-0.195
2.743,0.0003125,-0.1946875
2.744,0.0003125,-0.194375
2.745,0.0003125,-0.194375
2.746,0.0003125,-0.19375
2.747,0.0003125,-0.1934375
2.748,0.0003125,-0.1934375
2.749,0,-0.193125
2.75,0,-0.1928125
2.751,0,-0.1925
2.752,0,-0.1925
2.753,0,-0.191875
2.754,0,-0.191875
2.755,0,-0.1915625
2.756,0,-0.19125
2.757,0,-0.1909375
2.758,0,-0.190625
2.759,0,-0.1903125
2.76,0,-0.19
2.761,0,-0.1896875
2.762,0,-0.189375
2.763,0,-0.1890625
2.764,0,-0.18875
2.765,0,-0.1884375
2.766,0,-0.1878125
2.767,0,-0.1878125
2.768,0,-0.1871875
2.769,0,-0.186875
2.77,0,-0.186875
2.771,0.0003125,-0.1865625
2.772,0.0003125,-0.18625
2.773,0.000625,-0.1859375
2.774,0.000625,-0.185625
2.775,0.000625,-0.1853125
2.776,0.0009375,-0.1853125
2.777,0.0009375,-0.1846875
2.778,0.00125,-0.1846875
2.779,0.00125,-0.184375
2.78,0.0015625,-0.1840625
2.781,0.001875,-0.18375
2.782,0.001875,-0.18375
2.783,0.001875,-0.183125
2.784,0.0021875,-0.183125
2.785,0.0025,-0.1828125
2.786,0.0025,-0.1825
2.787,0.0028125,-0.1825
2.788,0.003125,-0.1821875
2.789,0.003125,-0.181875
2.79,0.003125,-0.181875
2.791,0.0034375,-0.1815625
2.792,0.0034375,-0.18125
2.793,0.00375,-0.18125
2.794,0.00375,-0.1809375
2.795,0.00375,-0.1809375
2.796,0.00375,-0.1809375
2.797,0.0040625,-0.180625
2.798,0.0040625,-0.180625
2.799,0.0040625,-0.1803125
2.8,0.00375,-0.18
2.801,0.00375,-0.18
2.802,0.00375,-0.1796875
2.803,0.00375,-0.179375
2.804,0.00375,-0.179375
2.805,0.0034375,-0.1790625
2.806,0.0034375,-0.17875
2.807,0.0034375,-0.17875
2.808,0.003125,-0.1784375
2.809,0.003125,-0.178125
2.81,0.0028125,-0.178125
2.811,0.0028125,-0.1775
2.812,0.0028125,-0.1775
2.813,0.0025,-0.1771875
2.814,0.0025,-0.176875
2.815,0.0021875,-0.176875
2.816,0.0021875,-0.17625
2.817,0.0021875,-0.17625
2.818,0.001875,-0.175625
2.819,0.001875,-0.175625
2.82,0.001875,-0.1753125
2.821,0.0015625,-0.175
2.822,0.0015625,-0.1746875
2.823,0.0015625,-0.1746875
2.824,0.0015625,-0.174375
2.825,0.00125,-0.17375
2.826,0.00125,-0.17375
2.827,0.00125,-0.1734375
2.828,0.00125,-0.173125
2.829,0.00125,-0.173125
2.83,0.00125,-0.1728125
2.831,0.00125,-0.1725
2.832,0.00125,-0.1721875
2.833,0.0015625,-0.1721875
2.834,0.0015625,-0.171875
2.835,0.0015625,-0.171875
2.836,0.0015625,-0.1715625
2.837,0.0015625,-0.17125
2.838,0.001875,-0.17125
2.839,0.001875,-0.1709375
2.84,0.001875,-0.170625
2.841,0.0021875,-0.170625
2.842,0.0021875,-0.1703125
2.843,0.0021875,-0.17
2.844,0.0025,-0.17
2.845,0.0025,-0.1696875
2.846,0.0025,-0.169375
2.847,0.0028125,-0.169375
2.848,0.003125,-0.1690625
2.849,0.003125,-0.16875
2.85,0.0034375,-0.16875
2.851,0.00375,-0.1684375
2.852,0.00375,-0.168125
2.853,0.00375,-0.1678125
2.854,0.0040625,-0.1678125
2.855,0.004375,-0.1675
2.856,0.0046875,-0.1671875
2.857,0.0046875,-0.1671875
2.858,0.0046875,-0.1665625
2.859,0.005,-0.1665625
2.86,0.0053125,-0.16625
2.861,0.005625,-0.1659375
2.862,0.005625,-0.165625
2.863,0.0059375,-0.1653125
2.864,0.0059375,-0.165
2.865,0.00625,-0.1646875
2.866,0.0065625,-0.164375
2.867,0.0065625,-0.1640625
2.868,0.0071875,-0.16375
2.869,0.0071875,-0.1634375
2.87,0.0075,-0.163125
2.871,0.0078125,-0.1628125
2.872,0.0078125,-0.1625
2.873,0.008125,-0.1621875
2.874,0.008125,-0.161875
2.875,0.008125,-0.161875
2.876,0.0084375,-0.1615625
2.877,0.0084375,-0.1609375
2.878,0.00875,-0.1609375
2.879,0.00875,-0.160625
2.88,0.00875,-0.1603125
2.881,0.00875,-0.1603125
2.882,0.00875,-0.1596875
2.883,0.00875,-0.159375
2.884,0.00875,-0.159375
2.885,0.00875,-0.1590625
2.886,0.00875,-0.15875
2.887,0.00875,-0.15875
2.888,0.0090625,-0.1584375
2.889,0.0090625,-0.158125
2.89,0.0090625,-0.158125
2.891,0.0090625,-0.1578125
2.892,0.0090625,-0.1578125
2.893,0.0090625,-0.1575
2.894,0.00875,-0.1575
2.895,0.00875,-0.1575
2.896,0.00875,-0.1571875
2.897,0.00875,-0.1571875
2.898,0.00875,-0.1571875
2.899,0.00875,-0.156875
2.9,0.00875,-0.156875
2.901,0.00875,-0.1565625
2.902,0.00875,-0.1565625
2.903,0.00875,-0.1565625
2.904,0.00875,-0.15625
2.905,0.00875,-0.15625
2.906,0.00875,-0.15625
2.907,0.00875,-0.15625
2.908,0.00875,-0.1559375
2.909,0.0090625,-0.1559375
2.91,0.0090625,-0.1559375
2.911,0.0090625,-0.1559375
2.912,0.0090625,-0.1559375
2.913,0.0090625,-0.1559375
2.914,0.009375,-0.1559375
2.915,0.009375,-0.1559375
2.916,0.009375,-0.1559375
2.917,0.009375,-0.1559375
2.918,0.009375,-0.1559375
2.919,0.009375,-0.155625
2.92,0.009375,-0.155625
2.921,0.009375,-0.155625
2.922,0.009375,-0.155625
2.923,0.009375,-0.1559375
2.924,0.009375,-0.1559375
2.925,0.009375,-0.1559375
2.926,0.009375,-0.1559375
2.927,0.009375,-0.1559375
2.928,0.009375,-0.1559375
2.929,0.0090625,-0.1559375
2.93,0.0090625,-0.15625
2.931,0.00875,-0.15625
2.932,0.00875,-0.15625
2.933,0.00875,-0.1565625
2.934,0.0084375,-0.1565625
2.935,0.008125,-0.156875
2.936,0.008125,-0.1571875
2.937,0.0078125,-0.1571875
2.938,0.0075,-0.1575
2.939,0.0075,-0.1575
2.94,0.006875,-0.1578125
2.941,0.0065625,-0.158125
2.942,0.0065625,-0.158125
2.943,0.00625,-0.1584375
2.944,0.0059375,-0.1584375
2.945,0.005625,-0.15875
2.946,0.0053125,-0.1590625
2.947,0.005,-0.1590625
2.948,0.0046875,-0.159375
2.949,0.004375,-0.159375
2.95,0.0040625,-0.1596875
2.951,0.00375,-0.1596875
2.952,0.0034375,-0.16
2.953,0.003125,-0.16
2.954,0.0028125,-0.16
2.955,0.0025,-0.1603125
2.956,0.0025,-0.1603125
2.957,0.001875,-0.1603125
2.958,0.001875,-0.1603125
2.959,0.0015625,-0.1603125
2.96,0.0009375,-0.1603125
2.961,0.0009375,-0.1603125
2.962,0.000625,-0.1603125
2.963,0.0003125,-0.1603125
2.964,0.0003125,-0.1603125
2.965,0,-0.16
2.966,-0.0003125,-0.16
2.967,-0.0003125,-0.1596875
2.968,-0.000625,-0.1596875
2.969,-0.000625,-0.1596875
2.97,-0.000625,-0.159375
2.971,-0.0009375,-0.159375
2.972,-0.0009375,-0.1590625
2.973,-0.0009375,-0.1590625
2.974,-0.0009375,-0.15875
2.975,-0.0009375,-0.15875
2.976,-0.0009375,-0.1584375
2.977,-0.0009375,-0.158125
2.978,-0.0009375,-0.158125
2.979,-0.000625,-0.1578125
2.98,-0.000625,-0.1575
2.981,-0.000625,-0.1575
2.982,-0.0003125,-0.1571875
2.983,-0.0003125,-0.156875
2.984,-0.0003125,-0.156875
2.985,0,-0.15625
2.986,0,-0.15625
2.987,0.0003125,-0.1559375
2.988,0.000625,-0.155625
2.989,0.000625,-0.155625
2.99,0.0009375,-0.155
2.991,0.0015625,-0.155
2.992,0.0015625,-0.1546875
2.993,0.0021875,-0.154375
2.994,0.0021875,-0.154375
2.995,0.0028125,-0.1540625
2.996,0.0028125,-0.1540625
2.997,0.0034375,-0.15375
2.998,0.0034375,-0.1534375
2.999,0.0040625,-0.153125
3,0.0040625,-0.153125
3.001,0.0046875,-0.1528125
3.002,0.0046875,-0.1525
3.003,0.005,-0.1525
3.004,0.005625,-0.151875
3.005,0.005625,-0.151875
3.006,0.0059375,-0.1515625
3.007,0.00625,-0.15125
3.008,0.0065625,-0.15125
3.009,0.0065625,-0.1509375
3.01,0.006875,-0.150625
3.011,0.0071875,-0.1503125
3.012,0.0071875,-0.1503125
3.013,0.0075,-0.15
3.014,0.0078125,-0.1496875
3.015,0.008125,-0.1496875
3.016,0.008125,-0.1496875
3.017,0.008125,-0.149375
3.018,0.0084375,-0.149375
3.019,0.0084375,-0.1490625
3.02,0.0084375,-0.14875
3.021,0.00875,-0.14875
3.022,0.00875,-0.1484375
3.023,0.00875,-0.148125
3.024,0.00875,-0.148125
3.025,0.00875,-0.148125
3.026,0.00875,-0.1478125
3.027,0.00875,-0.1475
3.028,0.00875,-0.1475
3.029,0.00875,-0.1471875
3.03,0.00875,-0.1471875
3.031,0.00875,-0.1471875
3.032,0.00875,-0.146875
3.033,0.00875,-0.146875
3.034,0.00875,-0.1465625
3.035,0.00875,-0.1465625
3.036,0.0090625,-0.1465625
3.037,0.0090625,-0.14625
3.038,0.0090625,-0.14625
3.039,0.0090625,-0.14625
3.04,0.0090625,-0.1459375
3.041,0.009375,-0.1459375
3.042,0.009375,-0.1459375
3.043,0.009375,-0.145625
3.044,0.0096875,-0.145625
3.045,0.0096875,-0.1453125
3.046,0.0096875,-0.1453125
3.047,0.01,-0.145
3.048,0.01,-0.1446875
3.049,0.0103125,-0.1446875
3.05,0.010625,-0.144375
3.051,0.010625,-0.1440625
3.052,0.0109375,-0.1440625
3.053,0.01125,-0.1440625
3.054,0.0115625,-0.14375
3.055,0.011875,-0.1434375
3.056,0.0121875,-0.143125
3.057,0.0128125,-0.143125
3.058,0.013125,-0.143125
3.059,0.0134375,-0.1428125
3.06,0.01375,-0.1425
3.061,0.014375,-0.1421875
3.062,0.0146875,-0.1421875
3.063,0.015,-0.141875
3.064,0.015625,-0.1415625
3.065,0.0159375,-0.1415625
3.066,0.0165625,-0.1409375
3.067,0.016875,-0.1409375
3.068,0.0171875,-0.140625
3.069,0.0178125,-0.1403125
3.07,0.018125,-0.1403125
3.071,0.0184375,-0.1396875
3.072,0.01875,-0.1396875
3.073,0.019375,-0.139375
3.074,0.019375,-0.1390625
3.075,0.0196875,-0.1390625
3.076,0.0203125,-0.13875
3.077,0.020625,-0.1384375
3.078,0.0209375,-0.138125
3.079,0.02125,-0.138125
3.08,0.02125,-0.1378125
3.081,0.021875,-0.1375
3.082,0.021875,-0.1375
3.083,0.0221875,-0.1371875
3.084,0.0225,-0.1371875
3.085,0.0225,-0.136875
3.086,0.0228125,-0.1365625
3.087,0.0228125,-0.13625
3.088,0.0228125,-0.13625
3.089,0.023125,-0.1359375
3.09,0.023125,-0.135625
3.091,0.023125,-0.1353125
3.092,0.023125,-0.1353125
3.093,0.023125,-0.1346875
3.094,0.0234375,-0.134375
3.095,0.0234375,-0.134375
3.096,0.023125,-0.1340625
3.097,0.023125,-0.13375
3.098,0.023125,-0.1334375
3.099,0.023125,-0.133125
3.1,0.023125,-0.1328125
3.101,0.023125,-0.1325
3.102,0.023125,-0.1321875
3.103,0.023125,-0.1321875
3.104,0.023125,-0.1315625
3.105,0.023125,-0.1315625
3.106,0.023125,-0.13125
3.107,0.023125,-0.130625
3.108,0.0228125,-0.130625
3.109,0.0228125,-0.1303125
3.11,0.0228125,-0.1303125
3.111,0.0228125,-0.13
3.112,0.0228125,-0.1296875
3.113,0.0228125,-0.1296875
3.114,0.0228125,-0.129375
3.115,0.0228125,-0.129375
3.116,0.0228125,-0.129375
3.117,0.0228125,-0.1290625
3.118,0.0225,-0.1290625
3.119,0.0225,-0.1290625
3.12,0.0225,-0.1290625
3.121,0.0225,-0.129375
3.122,0.0225,-0.129375
3.123,0.0225,-0.129375
3.124,0.0225,-0.129375
3.125,0.0221875,-0.129375
3.126,0.0221875,-0.129375
3.127,0.0221875,-0.129375
3.128,0.0221875,-0.129375
3.129,0.0221875,-0.129375
3.13,0.0221875,-0.129375
3.131,0.0221875,-0.129375
3.132,0.0221875,-0.129375
3.133,0.0221875,-0.1296875
3.134,0.0221875,-0.129375
3.135,0.0221875,-0.129375
3.136,0.0221875,-0.129375
3.137,0.0221875,-0.129375
3.138,0.0221875,-0.129375
3.139,0.0221875,-0.129375
3.14,0.0225,-0.129375
3.141,0.0225,-0.129375
3.142,0.0225,-0.129375
3.143,0.0228125,-0.1290625
3.144,0.0228125,-0.1290625
3.145,0.023125,-0.1290625
3.146,0.023125,-0.12875
3.147,0.0234375,-0.12875
3.148,0.02375,-0.1284375
3.149,0.02375,-0.128125
3.15,0.0240625,-0.1278125
3.151,0.024375,-0.1278125
3.152,0.0246875,-0.1275
3.153,0.0246875,-0.1271875
3.154,0.025,-0.1271875
3.155,0.0253125,-0.1265625
3.156,0.0253125,-0.1265625
3.157,0.025625,-0.12625
3.158,0.0259375,-0.1259375
3.159,0.02625,-0.1259375
3.16,0.02625,-0.1253125
3.161,0.02625,-0.1253125
3.162,0.0265625,-0.125
3.163,0.026875,-0.1246875
3.164,0.026875,-0.1246875
3.165,0.026875,-0.124375
3.166,0.0271875,-0.1240625
3.167,0.0271875,-0.12375
3.168,0.0271875,-0.1234375
3.169,0.0275,-0.1234375
3.17,0.0275,-0.123125
3.171,0.0275,-0.1228125
3.172,0.0275,-0.1228125
3.173,0.0271875,-0.1225
3.174,0.0271875,-0.1221875
3.175,0.0271875,-0.121875
3.176,0.0271875,-0.121875
3.177,0.026875,-0.121875
3.178,0.026875,-0.1215625
3.179,0.0265625,-0.12125
3.18,0.02625,-0.12125
3.181,0.02625,-0.1209375
3.182,0.02625,-0.1209375
3.183,0.0259375,-0.1209375
3.184,0.025625,-0.120625
3.185,0.025625,-0.120625
3.186,0.025,-0.120625
3.187,0.025,-0.1203125
3.188,0.0246875,-0.1203125
3.189,0.024375,-0.1203125
3.19,0.024375,-0.1203125
3.191,0.0240625,-0.120625
3.192,0.02375,-0.120625
3.193,0.02375,-0.120625
3.194,0.02375,-0.120625
3.195,0.0234375,-0.120625
3.196,0.023125,-0.120625
3.197,0.023125,-0.120625
3.198,0.0228125,-0.1209375
3.199,0.0228125,-0.1209375
3.2,0.0225,-0.1209375
3.201,0.0225,-0.1209375
3.202,0.0221875,-0.1209375
3.203,0.021875,-0.1209375
3.204,0.021875,-0.1209375
3.205,0.0215625,-0.1209375
3.206,0.0215625,-0.1209375
3.207,0.02125,-0.120625
3.208,0.0209375,-0.120625
3.209,0.020625,-0.120625
3.21,0.020625,-0.120625
3.211,0.0203125,-0.120625
3.212,0.0203125,-0.120625
3.213,0.02,-0.120625
3.214,0.0196875,-0.1203125
3.215,0.0196875,-0.1203125
3.216,0.019375,-0.1203125
3.217,0.0190625,-0.1203125
3.218,0.01875,-0.1203125
3.219,0.01875,-0.1203125
3.22,0.01875,-0.12
3.221,0.0184375,-0.12
3.222,0.018125,-0.12
3.223,0.018125,-0.12
3.224,0.0178125,-0.12
3.225,0.0175,-0.12
3.226,0.0171875,-0.12
3.227,0.0171875,-0.1196875
3.228,0.0171875,-0.1196875
3.229,0.016875,-0.12
3.23,0.0165625,-0.12
3.231,0.01625,-0.12
3.232,0.01625,-0.12
3.233,0.0159375,-0.12
3.234,0.0159375,-0.12
3.235,0.015625,-0.12
3.236,0.015625,-0.1203125
3.237,0.015625,-0.1203125
3.238,0.0153125,-0.1203125
3.239,0.0153125,-0.120625
3.24,0.0153125,-0.120625
3.241,0.0153125,-0.1209375
3.242,0.0153125,-0.12125
3.243,0.0153125,-0.12125
3.244,0.0153125,-0.1215625
3.245,0.015625,-0.121875
3.246,0.015625,-0.121875
3.247,0.015625,-0.1221875
3.248,0.015625,-0.1221875
3.249,0.0159375,-0.1221875
3.25,0.0159375,-0.1225
3.251,0.0159375,-0.1225
3.252,0.01625,-0.1228125
3.253,0.01625,-0.123125
3.254,0.0165625,-0.123125
3.255,0.0165625,-0.1234375
3.256,0.016875,-0.12375
3.257,0.0171875,-0.12375
3.258,0.0175,-0.12375
3.259,0.0175,-0.1240625
3.26,0.0178125,-0.124375
3.261,0.018125,-0.1246875
3.262,0.018125,-0.1246875
3.263,0.0184375,-0.125
3.264,0.01875,-0.1253125
3.265,0.01875,-0.125625
3.266,0.0190625,-0.125625
3.267,0.019375,-0.125625
3.268,0.019375,-0.1259375
3.269,0.0196875,-0.12625
3.27,0.02,-0.12625
3.271,0.0203125,-0.12625
3.272,0.0203125,-0.1265625
3.273,0.020625,-0.1265625
3.274,0.020625,-0.1265625
3.275,0.0209375,-0.1265625
3.276,0.02125,-0.12625
3.277,0.02125,-0.12625
3.278,0.0215625,-0.12625
3.279,0.021875,-0.12625
3.28,0.021875,-0.1259375
3.281,0.0221875,-0.125625
3.282,0.0221875,-0.1253125
3.283,0.0221875,-0.1253125
3.284,0.0225,-0.1246875
3.285,0.0225,-0.124375
3.286,0.0225,-0.1240625
3.287,0.0228125,-0.1234375
3.288,0.0228125,-0.123125
3.289,0.0228125,-0.1228125
3.29,0.023125,-0.1221875
3.291,0.023125,-0.1215625
3.292,0.023125,-0.12125
3.293,0.0234375,-0.1203125
3.294,0.0234375,-0.12
3.295,0.0234375,-0.119375
3.296,0.02375,-0.11875
3.297,0.02375,-0.118125
3.298,0.02375,-0.1178125
3.299,0.0240625,-0.116875
3.3,0.0240625,-0.1165625
3.301,0.024375,-0.1159375
3.302,0.024375,-0.1153125
3.303,0.0246875,-0.115
3.304,0.0246875,-0.114375
3.305,0.025,-0.1140625
3.306,0.025,-0.1134375
3.307,0.0253125,-0.113125
3.308,0.0253125,-0.1128125
3.309,0.025625,-0.1121875
3.31,0.025625,-0.111875
3.311,0.0259375,-0.111875
3.312,0.0259375,-0.11125
3.313,0.02625,-0.11125
3.314,0.02625,-0.1109375
3.315,0.0265625,-0.110625
3.316,0.0265625,-0.110625
3.317,0.026875,-0.1103125
3.318,0.026875,-0.1103125
3.319,0.0271875,-0.1103125
3.32,0.0271875,-0.11
3.321,0.0271875,-0.11
3.322,0.0275,-0.11
3.323,0.0275,-0.11
3.324,0.0278125,-0.11
3.325,0.0278125,-0.1096875
3.326,0.0278125,-0.11
3.327,0.028125,-0.11
3.328,0.028125,-0.11
3.329,0.028125,-0.11
3.33,0.028125,-0.11
3.331,0.0284375,-0.11
3.332,0.0284375,-0.11
3.333,0.0284375,-0.11
3.334,0.0284375,-0.11
3.335,0.0284375,-0.11
3.336,0.0284375,-0.1096875
3.337,0.02875,-0.1096875
3.338,0.02875,-0.1096875
3.339,0.02875,-0.1096875
3.34,0.02875,-0.1096875
3.341,0.02875,-0.109375
3.342,0.02875,-0.109375
3.343,0.0290625,-0.109375
3.344,0.0290625,-0.1090625
3.345,0.0290625,-0.10875
3.346,0.029375,-0.1084375
3.347,0.029375,-0.108125
3.348,0.029375,-0.1078125
3.349,0.0296875,-0.1075
3.35,0.0296875,-0.106875
3.351,0.03,-0.1065625
3.352,0.03,-0.10625
3.353,0.0303125,-0.1053125
3.354,0.0303125,-0.1046875
3.355,0.030625,-0.104375
3.356,0.030625,-0.1034375
3.357,0.030625,-0.1028125
3.358,0.0309375,-0.1025
3.359,0.0309375,-0.1015625
3.36,0.03125,-0.100625
3.361,0.03125,-0.1
3.362,0.0315625,-0.0990625
3.363,0.0315625,-0.098125
3.364,0.0315625,-0.0975
3.365,0.0315625,-0.0965625
3.366,0.0315625,-0.0959375
3.367,0.031875,-0.095
3.368,0.031875,-0.0940625
3.369,0.031875,-0.0934375
3.37,0.031875,-0.0925
3.371,0.031875,-0.091875
3.372,0.031875,-0.0909375
3.373,0.0315625,-0.09
3.374,0.0315625,-0.0896875
3.375,0.0315625,-0.08875
3.376,0.0315625,-0.0884375
3.377,0.03125,-0.0875
3.378,0.03125,-0.0871875
3.379,0.03125,-0.0865625
3.38,0.0309375,-0.08625
3.381,0.0309375,-0.0859375
3.382,0.030625,-0.0853125
3.383,0.030625,-0.085
3.384,0.0303125,-0.0846875
3.385,0.0303125,-0.0846875
3.386,0.03,-0.084375
3.387,0.0296875,-0.084375
3.388,0.0296875,-0.084375
3.389,0.0296875,-0.0840625
3.39,0.029375,-0.0840625
3.391,0.0290625,-0.0840625
3.392,0.0290625,-0.0840625
3.393,0.02875,-0.084375
3.394,0.02875,-0.084375
3.395,0.0284375,-0.084375
3.396,0.028125,-0.0846875
3.397,0.028125,-0.0846875
3.398,0.0278125,-0.085
3.399,0.0275,-0.085
3.4,0.0275,-0.0853125
3.401,0.0271875,-0.0853125
3.402,0.026875,-0.085625
3.403,0.026875,-0.085625
3.404,0.0265625,-0.085625
3.405,0.02625,-0.0859375
3.406,0.02625,-0.0859375
3.407,0.025625,-0.08625
3.408,0.025625,-0.08625
3.409,0.0253125,-0.08625
3.41,0.025,-0.0865625
3.411,0.025,-0.0865625
3.412,0.0246875,-0.086875
3.413,0.024375,-0.086875
3.414,0.0240625,-0.086875
3.415,0.0240625,-0.0871875
3.416,0.0240625,-0.0871875
3.417,0.02375,-0.0871875
3.418,0.0234375,-0.0871875
3.419,0.0234375,-0.0875
3.42,0.023125,-0.0875
3.421,0.023125,-0.0875
3.422,0.023125,-0.0871875
3.423,0.0228125,-0.0871875
3.424,0.0228125,-0.0871875
3.425,0.0225,-0.0871875
3.426,0.0225,-0.0871875
3.427,0.0225,-0.0871875
3.428,0.0221875,-0.0871875
3.429,0.0221875,-0.0871875
3.43,0.0221875,-0.086875
3.431,0.0221875,-0.086875
3.432,0.0221875,-0.086875
3.433,0.0221875,-0.086875
3.434,0.0221875,-0.086875
3.435,0.0221875,-0.086875
3.436,0.0221875,-0.086875
3.437,0.0221875,-0.0865625
3.438,0.0221875,-0.0865625
3.439,0.0221875,-0.0865625
3.44,0.0221875,-0.0865625
3.441,0.0221875,-0.0865625
3.442,0.0221875,-0.08625
3.443,0.0221875,-0.08625
3.444,0.0225,-0.0859375
3.445,0.0221875,-0.0859375
3.446,0.0221875,-0.0859375
3.447,0.0221875,-0.085625
3.448,0.0221875,-0.085625
3.449,0.0221875,-0.0853125
3.45,0.0221875,-0.0853125
3.451,0.0221875,-0.0853125
3.452,0.0221875,-0.085
3.453,0.0221875,-0.0846875
3.454,0.0221875,-0.0846875
3.455,0.0221875,-0.0846875
3.456,0.0221875,-0.084375
3.457,0.0221875,-0.084375
3.458,0.0221875,-0.0840625
3.459,0.021875,-0.0840625
3.46,0.021875,-0.08375
3.461,0.021875,-0.08375
3.462,0.021875,-0.0834375
3.463,0.0221875,-0.0834375
3.464,0.0221875,-0.083125
3.465,0.0221875,-0.083125
3.466,0.0221875,-0.0828125
3.467,0.0221875,-0.0828125
3.468,0.0221875,-0.0825
3.469,0.0221875,-0.0825
3.47,0.0221875,-0.0825
3.471,0.0225,-0.0821875
3.472,0.0225,-0.0821875
3.473,0.0225,-0.0821875
3.474,0.0228125,-0.0821875
3.475,0.0228125,-0.0821875
3.476,0.023125,-0.0821875
3.477,0.023125,-0.0821875
3.478,0.023125,-0.0821875
3.479,0.0234375,-0.0821875
3.48,0.0234375,-0.0821875
3.481,0.0234375,-0.0821875
3.482,0.02375,-0.0821875
3.483,0.02375,-0.0821875
3.484,0.02375,-0.0821875
3.485,0.02375,-0.0821875
3.486,0.02375,-0.0825
3.487,0.02375,-0.0825
3.488,0.02375,-0.0825
3.489,0.02375,-0.0825
3.49,0.02375,-0.0825
3.491,0.02375,-0.0828125
3.492,0.0234375,-0.0828125
3.493,0.0234375,-0.0828125
3.494,0.0234375,-0.083125
3.495,0.023125,-0.083125
3.496,0.023125,-0.083125
3.497,0.0228125,-0.083125
3.498,0.0228125,-0.083125
3.499,0.0225,-0.0834375
3.5,0.0221875,-0.0834375
3.501,0.0221875,-0.083125
3.502,0.021875,-0.083125
3.503,0.0215625,-0.083125
3.504,0.0215625,-0.083125
3.505,0.0209375,-0.083125
3.506,0.0209375,-0.0828125
3.507,0.020625,-0.0828125
3.508,0.0203125,-0.0828125
3.509,0.0203125,-0.0825
3.51,0.02,-0.0825
3.511,0.0196875,-0.0821875
3.512,0.019375,-0.081875
3.513,0.019375,-0.081875
3.514,0.0190625,-0.0815625
3.515,0.01875,-0.08125
3.516,0.01875,-0.08125
3.517,0.0184375,-0.0809375
3.518,0.0184375,-0.0809375
3.519,0.0184375,-0.080625
3.52,0.018125,-0.0803125
3.521,0.018125,-0.0803125
3.522,0.0178125,-0.0796875
3.523,0.0175,-0.0796875
3.524,0.0175,-0.079375
3.525,0.0171875,-0.0790625
3.526,0.0171875,-0.0790625
3.527,0.016875,-0.07875
3.528,0.0165625,-0.0784375
3.529,0.0165625,-0.0784375
3.53,0.01625,-0.0784375
3.531,0.01625,-0.078125
3.532,0.01625,-0.078125
3.533,0.0159375,-0.0778125
3.534,0.015625,-0.0778125
3.535,0.015625,-0.0778125
3.536,0.0153125,-0.0778125
3.537,0.0153125,-0.0778125
3.538,0.015,-0.0778125
3.539,0.015,-0.0778125
3.54,0.0146875,-0.0778125
3.541,0.014375,-0.0778125
3.542,0.014375,-0.0778125
3.543,0.014375,-0.0778125
3.544,0.0140625,-0.0778125
3.545,0.01375,-0.0778125
3.546,0.01375,-0.0778125
3.547,0.0134375,-0.0778125
3.548,0.013125,-0.0778125
3.549,0.013125,-0.0778125
3.55,0.0128125,-0.0778125
3.551,0.0125,-0.0778125
3.552,0.0125,-0.0778125
3.553,0.0125,-0.0778125
3.554,0.0121875,-0.078125
3.555,0.011875,-0.078125
3.556,0.0115625,-0.078125
3.557,0.0115625,-0.078125
3.558,0.01125,-0.078125
3.559,0.0109375,-0.078125
3.56,0.0109375,-0.078125
3.561,0.010625,-0.078125
3.562,0.0103125,-0.0778125
3.563,0.01,-0.0778125
3.564,0.0096875,-0.0778125
3.565,0.009375,-0.0775
3.566,0.0090625,-0.0775
3.567,0.00875,-0.0775
3.568,0.0084375,-0.0771875
3.569,0.008125,-0.0771875
3.57,0.0078125,-0.0771875
3.571,0.0071875,-0.076875
3.572,0.006875,-0.076875
3.573,0.0065625,-0.076875
3.574,0.00625,-0.0765625
3.575,0.005625,-0.0765625
3.576,0.0053125,-0.0765625
3.577,0.005,-0.0765625
3.578,0.004375,-0.0765625
3.579,0.0040625,-0.0765625
3.58,0.00375,-0.0765625
3.581,0.003125,-0.07625
3.582,0.0028125,-0.07625
3.583,0.0025,-0.07625
3.584,0.0021875,-0.07625
3.585,0.0015625,-0.07625
3.586,0.00125,-0.07625
3.587,0.0009375,-0.07625
3.588,0.000625,-0.07625
3.589,0.0003125,-0.07625
3.59,0,-0.07625
3.591,0,-0.07625
3.592,-0.0003125,-0.07625
3.593,-0.000625,-0.07625
3.594,-0.0009375,-0.07625
3.595,-0.0009375,-0.07625
3.596,-0.0009375,-0.07625
3.597,-0.00125,-0.0765625
3.598,-0.0015625,-0.0765625
3.599,-0.0015625,-0.0765625
3.6,-0.001875,-0.076875
3.601,-0.0021875,-0.076875
3.602,-0.0021875,-0.076875
3.603,-0.0025,-0.076875
3.604,-0.0028125,-0.076875
3.605,-0.0028125,-0.076875
3.606,-0.003125,-0.076875
3.607,-0.00375,-0.076875
3.608,-0.00375,-0.076875
3.609,-0.0040625,-0.076875
3.61,-0.004375,-0.076875
3.611,-0.0046875,-0.076875
3.612,-0.005,-0.076875
3.613,-0.0053125,-0.076875
3.614,-0.0053125,-0.0771875
3.615,-0.0059375,-0.0771875
3.616,-0.00625,-0.0771875
3.617,-0.00625,-0.0775
3.618,-0.0065625,-0.0775
3.619,-0.006875,-0.0775
3.62,-0.0071875,-0.0778125
3.621,-0.0071875,-0.0778125
3.622,-0.0078125,-0.078125
3.623,-0.008125,-0.078125
3.624,-0.008125,-0.078125
3.625,-0.0084375,-0.0784375
3.626,-0.0084375,-0.0784375
3.627,-0.0090625,-0.07875
3.628,-0.0090625,-0.07875
3.629,-0.0090625,-0.0790625
3.63,-0.009375,-0.079375
3.631,-0.009375,-0.079375
3.632,-0.0096875,-0.0796875
3.633,-0.0096875,-0.0803125
3.634,-0.0096875,-0.0803125
3.635,-0.01,-0.0809375
3.636,-0.01,-0.08125
3.637,-0.0096875,-0.0815625
3.638,-0.0096875,-0.0821875
3.639,-0.0096875,-0.0825
3.64,-0.0096875,-0.0828125
3.641,-0.0096875,-0.0834375
3.642,-0.009375,-0.0840625
3.643,-0.009375,-0.084375
3.644,-0.009375,-0.0853125
3.645,-0.0090625,-0.085625
3.646,-0.0090625,-0.0859375
3.647,-0.00875,-0.086875
3.648,-0.00875,-0.0875
3.649,-0.00875,-0.0878125
3.65,-0.0084375,-0.0884375
3.651,-0.0084375,-0.089375
3.652,-0.008125,-0.0896875
3.653,-0.008125,-0.0903125
3.654,-0.008125,-0.0909375
3.655,-0.0078125,-0.09125
3.656,-0.0078125,-0.0921875
3.657,-0.0078125,-0.0928125
3.658,-0.0078125,-0.093125
3.659,-0.0078125,-0.0940625
3.66,-0.0075,-0.094375
3.661,-0.0075,-0.0946875
3.662,-0.0075,-0.0953125
3.663,-0.0075,-0.0959375
3.664,-0.0075,-0.09625
3.665,-0.0075,-0.096875
3.666,-0.0075,-0.0971875
3.667,-0.0075,-0.0975
3.668,-0.0078125,-0.0978125
3.669,-0.0078125,-0.098125
3.67,-0.0078125,-0.098125
3.671,-0.0078125,-0.0984375
3.672,-0.0078125,-0.09875
3.673,-0.0078125,-0.09875
3.674,-0.0078125,-0.09875
3.675,-0.0078125,-0.0990625
3.676,-0.0078125,-0.0990625
3.677,-0.0078125,-0.0990625
3.678,-0.0078125,-0.09875
3.679,-0.0078125,-0.09875
3.68,-0.0078125,-0.09875
3.681,-0.0078125,-0.0984375
3.682,-0.0078125,-0.0984375
3.683,-0.0078125,-0.098125
3.684,-0.0078125,-0.0978125
3.685,-0.0078125,-0.0978125
3.686,-0.0078125,-0.0971875
3.687,-0.0078125,-0.0971875
3.688,-0.0078125,-0.096875
3.689,-0.0078125,-0.09625
3.69,-0.0078125,-0.09625
3.691,-0.0078125,-0.095625
3.692,-0.0078125,-0.0953125
3.693,-0.0078125,-0.0953125
3.694,-0.0078125,-0.0946875
3.695,-0.0078125,-0.0946875
3.696,-0.0078125,-0.094375
3.697,-0.0075,-0.09375
3.698,-0.0075,-0.09375
3.699,-0.0075,-0.0934375
3.7,-0.0075,-0.093125
3.701,-0.0075,-0.0928125
3.702,-0.0071875,-0.0925
3.703,-0.0071875,-0.0925
3.704,-0.0071875,-0.0921875
3.705,-0.0071875,-0.0915625
3.706,-0.006875,-0.0915625
3.707,-0.006875,-0.09125
3.708,-0.006875,-0.0909375
3.709,-0.006875,-0.0909375
3.71,-0.0065625,-0.090625
3.711,-0.0065625,-0.0903125
3.712,-0.0065625,-0.09
3.713,-0.0065625,-0.09
3.714,-0.00625,-0.0896875
3.715,-0.00625,-0.0896875
3.716,-0.00625,-0.0896875
3.717,-0.00625,-0.089375
3.718,-0.00625,-0.089375
3.719,-0.0059375,-0.089375
3.72,-0.0059375,-0.0890625
3.721,-0.0059375,-0.0890625
3.722,-0.0059375,-0.08875
3.723,-0.0059375,-0.08875
3.724,-0.0059375,-0.0884375
3.725,-0.0059375,-0.088125
3.726,-0.0059375,-0.088125
3.727,-0.0059375,-0.0878125
3.728,-0.0059375,-0.0875
3.729,-0.0059375,-0.0875
3.73,-0.0059375,-0.0871875
3.731,-0.0059375,-0.0871875
3.732,-0.0059375,-0.086875
3.733,-0.00625,-0.0865625
3.734,-0.00625,-0.0865625
3.735,-0.0065625,-0.08625
3.736,-0.0065625,-0.0859375
3.737,-0.0065625,-0.0859375
3.738,-0.006875,-0.085625
3.739,-0.006875,-0.085625
3.74,-0.0075,-0.085
3.741,-0.0075,-0.085
3.742,-0.0078125,-0.0846875
3.743,-0.008125,-0.084375
3.744,-0.008125,-0.0840625
3.745,-0.0084375,-0.0840625
3.746,-0.00875,-0.0840625
3.747,-0.00875,-0.08375
3.748,-0.0090625,-0.08375
3.749,-0.009375,-0.08375
3.75,-0.009375,-0.08375
3.751,-0.0096875,-0.08375
3.752,-0.0096875,-0.0834375
3.753,-0.0096875,-0.0834375
3.754,-0.01,-0.0834375
3.755,-0.01,-0.0834375
3.756,-0.0103125,-0.0834375
3.757,-0.010625,-0.0828125
3.758,-0.010625,-0.0828125
3.759,-0.0109375,-0.0821875
3.76,-0.01125,-0.081875
3.761,-0.01125,-0.08125
3.762,-0.011875,-0.0809375
3.763,-0.011875,-0.08
3.764,-0.0121875,-0.0790625
3.765,-0.0125,-0.0784375
3.766,-0.0125,-0.078125
3.767,-0.0128125,-0.0771875
3.768,-0.0128125,-0.07625
3.769,-0.0128125,-0.0759375
3.77,-0.013125,-0.075
3.771,-0.013125,-0.0746875
3.772,-0.0128125,-0.0740625
3.773,-0.0128125,-0.0734375
3.774,-0.0128125,-0.073125
3.775,-0.0128125,-0.0725
3.776,-0.0128125,-0.071875
3.777,-0.0125,-0.0715625
3.778,-0.0125,-0.0709375
3.779,-0.0125,-0.070625
3.78,-0.0121875,-0.0703125
3.781,-0.0121875,-0.0696875
3.782,-0.0121875,-0.0690625
3.783,-0.011875,-0.06875
3.784,-0.011875,-0.068125
3.785,-0.0115625,-0.0678125
3.786,-0.0115625,-0.0675
3.787,-0.0115625,-0.0671875
3.788,-0.01125,-0.0671875
3.789,-0.0109375,-0.0671875
3.79,-0.0109375,-0.0671875
3.791,-0.010625,-0.0675
3.792,-0.01,-0.0678125
3.793,-0.01,-0.068125
3.794,-0.0096875,-0.06875
3.795,-0.0090625,-0.0690625
3.796,-0.0090625,-0.07
3.797,-0.0084375,-0.0703125
3.798,-0.0084375,-0.07125
3.799,-0.0078125,-0.0715625
3.8,-0.0078125,-0.0721875
3.801,-0.0075,-0.0728125
3.802,-0.0071875,-0.0734375
3.803,-0.0071875,-0.07375
3.804,-0.006875,-0.0746875
3.805,-0.0065625,-0.075
3.806,-0.0065625,-0.075625
3.807,-0.00625,-0.0759375
3.808,-0.00625,-0.07625
3.809,-0.0059375,-0.076875
3.81,-0.0059375,-0.0771875
3.811,-0.0059375,-0.0775
3.812,-0.0059375,-0.078125
3.813,-0.005625,-0.0784375
3.814,-0.005625,-0.0784375
3.815,-0.005625,-0.0790625
3.816,-0.005625,-0.079375
3.817,-0.005625,-0.079375
3.818,-0.005625,-0.0796875
3.819,-0.0059375,-0.0803125
3.82,-0.0059375,-0.0803125
3.821,-0.0059375,-0.080625
3.822,-0.0059375,-0.0809375
3.823,-0.00625,-0.08125
3.824,-0.00625,-0.08125
3.825,-0.00625,-0.08125
3.826,-0.0065625,-0.0815625
3.827,-0.0065625,-0.081875
3.828,-0.006875,-0.081875
3.829,-0.0071875,-0.0821875
3.83,-0.0071875,-0.0825
3.831,-0.0075,-0.0825
3.832,-0.008125,-0.0828125
3.833,-0.008125,-0.0828125
3.834,-0.0084375,-0.083125
3.835,-0.00875,-0.08375
3.836,-0.0090625,-0.0840625
3.837,-0.009375,-0.0840625
3.838,-0.0096875,-0.0846875
3.839,-0.01,-0.0846875
3.84,-0.0103125,-0.0853125
3.841,-0.0103125,-0.085625
3.842,-0.010625,-0.0859375
3.843,-0.01125,-0.08625
3.844,-0.0115625,-0.086875
3.845,-0.0115625,-0.0871875
3.846,-0.011875,-0.0875
3.847,-0.0121875,-0.0878125
3.848,-0.0125,-0.088125
3.849,-0.0125,-0.0884375
3.85,-0.0128125,-0.0890625
3.851,-0.013125,-0.0890625
3.852,-0.013125,-0.0896875
3.853,-0.0134375,-0.0896875
3.854,-0.01375,-0.0903125
3.855,-0.01375,-0.090625
3.856,-0.0140625,-0.0909375
3.857,-0.0140625,-0.09125
3.858,-0.014375,-0.0915625
3.859,-0.014375,-0.091875
3.86,-0.014375,-0.091875
3.861,-0.0146875,-0.0925
3.862,-0.0146875,-0.0928125
3.863,-0.015,-0.0928125
3.864,-0.015,-0.093125
3.865,-0.015,-0.0934375
3.866,-0.0153125,-0.0934375
3.867,-0.0153125,-0.09375
3.868,-0.015625,-0.09375
3.869,-0.015625,-0.09375
3.87,-0.0159375,-0.0940625
3.871,-0.0159375,-0.0940625
3.872,-0.0159375,-0.0940625
3.873,-0.01625,-0.094375
3.874,-0.01625,-0.094375
3.875,-0.0165625,-0.094375
3.876,-0.0165625,-0.0946875
3.877,-0.0165625,-0.0946875
3.878,-0.016875,-0.0946875
3.879,-0.016875,-0.095
3.88,-0.0171875,-0.095
3.881,-0.0171875,-0.095
3.882,-0.0171875,-0.095
3.883,-0.0175,-0.095
3.884,-0.0175,-0.0953125
3.885,-0.0175,-0.0953125
3.886,-0.0178125,-0.095
3.887,-0.0178125,-0.095
3.888,-0.0178125,-0.095
3.889,-0.0178125,-0.095
3.89,-0.0178125,-0.095
3.891,-0.0178125,-0.095
3.892,-0.0178125,-0.0946875
3.893,-0.0178125,-0.0946875
3.894,-0.0178125,-0.0946875
3.895,-0.0178125,-0.0946875
3.896,-0.0178125,-0.0946875
3.897,-0.0178125,-0.094375
3.898,-0.0178125,-0.094375
3.899,-0.0175,-0.094375
3.9,-0.0175,-0.094375
3.901,-0.0171875,-0.094375
3.902,-0.0171875,-0.0940625
3.903,-0.0171875,-0.0940625
3.904,-0.016875,-0.0940625
3.905,-0.016875,-0.09375
3.906,-0.0165625,-0.09375
3.907,-0.0165625,-0.0934375
3.908,-0.01625,-0.0934375
3.909,-0.0159375,-0.0934375
3.91,-0.015625,-0.093125
3.911,-0.015625,-0.093125
3.912,-0.0153125,-0.093125
3.913,-0.015,-0.093125
3.914,-0.015,-0.093125
3.915,-0.014375,-0.0928125
3.916,-0.014375,-0.0928125
3.917,-0.0140625,-0.0928125
3.918,-0.01375,-0.0928125
3.919,-0.01375,-0.0928125
3.92,-0.0134375,-0.0928125
3.921,-0.013125,-0.0928125
3.922,-0.0128125,-0.0928125
3.923,-0.0128125,-0.0928125
3.924,-0.0125,-0.0928125
3.925,-0.0121875,-0.0928125
3.926,-0.0121875,-0.0928125
3.927,-0.011875,-0.0925
3.928,-0.011875,-0.0925
3.929,-0.0115625,-0.0925
3.93,-0.0115625,-0.0921875
3.931,-0.0115625,-0.0921875
3.932,-0.01125,-0.0921875
3.933,-0.01125,-0.091875
3.934,-0.01125,-0.091875
3.935,-0.01125,-0.091875
3.936,-0.01125,-0.0915625
3.937,-0.01125,-0.0915625
3.938,-0.01125,-0.0915625
3.939,-0.01125,-0.09125
3.94,-0.01125,-0.09125
3.941,-0.01125,-0.09125
3.942,-0.01125,-0.0909375
3.943,-0.01125,-0.0909375
3.944,-0.01125,-0.090625
3.945,-0.0115625,-0.090625
3.946,-0.0115625,-0.090625
3.947,-0.0115625,-0.0903125
3.948,-0.011875,-0.0903125
3.949,-0.011875,-0.09
3.95,-0.011875,-0.09
3.951,-0.0121875,-0.09
3.952,-0.0121875,-0.0896875
3.953,-0.0125,-0.0896875
3.954,-0.0125,-0.0896875
3.955,-0.0125,-0.089375
3.956,-0.0128125,-0.089375
3.957,-0.0128125,-0.0890625
3.958,-0.0128125,-0.0890625
3.959,-0.013125,-0.0890625
3.96,-0.013125,-0.08875
3.961,-0.013125,-0.08875
3.962,-0.013125,-0.0884375
3.963,-0.0134375,-0.0884375
3.964,-0.0134375,-0.0884375
3.965,-0.0134375,-0.088125
3.966,-0.0134375,-0.088125
3.967,-0.0134375,-0.088125
3.968,-0.0134375,-0.0878125
3.969,-0.0134375,-0.0878125
3.97,-0.0134375,-0.0875
3.971,-0.0134375,-0.0875
3.972,-0.013125,-0.0871875
3.973,-0.013125,-0.0871875
3.974,-0.0128125,-0.0871875
3.975,-0.0128125,-0.0871875
3.976,-0.0128125,-0.0871875
3.977,-0.0125,-0.086875
3.978,-0.0121875,-0.086875
3.979,-0.011875,-0.086875
3.98,-0.011875,-0.086875
3.981,-0.0115625,-0.086875
3.982,-0.01125,-0.086875
3.983,-0.01125,-0.086875
3.984,-0.0109375,-0.086875
3.985,-0.010625,-0.0865625
3.986,-0.010625,-0.0865625
3.987,-0.0103125,-0.0865625
3.988,-0.01,-0.0865625
3.989,-0.01,-0.08625
3.99,-0.0096875,-0.08625
3.991,-0.0096875,-0.08625
3.992,-0.009375,-0.08625
3.993,-0.0090625,-0.08625
3.994,-0.0090625,-0.0859375
3.995,-0.00875,-0.0859375
3.996,-0.0084375,-0.0859375
3.997,-0.0084375,-0.0859375
3.998,-0.008125,-0.0859375
3.999,-0.008125,-0.0859375
4,-0.0078125,-0.0859375
4.001,-0.0078125,-0.085625
4.002,-0.0078125,-0.085625
4.003,-0.0075,-0.085625
4.004,-0.0075,-0.0853125
4.005,-0.0075,-0.0853125
4.006,-0.0071875,-0.0853125
4.007,-0.0071875,-0.085
4.008,-0.0071875,-0.0846875
4.009,-0.0071875,-0.0846875
4.01,-0.0071875,-0.084375
4.011,-0.0071875,-0.0840625
4.012,-0.0071875,-0.0840625
4.013,-0.0075,-0.08375
4.014,-0.0075,-0.08375
4.015,-0.0075,-0.0834375
4.016,-0.0075,-0.0834375
4.017,-0.0075,-0.0834375
4.018,-0.0075,-0.083125
4.019,-0.0075,-0.083125
4.02,-0.0078125,-0.083125
4.021,-0.0078125,-0.0828125
4.022,-0.0078125,-0.0828125
4.023,-0.008125,-0.0828125
4.024,-0.008125,-0.0825
4.025,-0.008125,-0.0825
4.026,-0.008125,-0.0825
4.027,-0.0084375,-0.0821875
4.028,-0.0084375,-0.0821875
4.029,-0.0084375,-0.0821875
4.03,-0.00875,-0.0821875
4.031,-0.00875,-0.0821875
4.032,-0.0090625,-0.081875
4.033,-0.0090625,-0.081875
4.034,-0.0090625,-0.081875
4.035,-0.009375,-0.081875
4.036,-0.009375,-0.081875
4.037,-0.009375,-0.081875
4.038,-0.0096875,-0.081875
4.039,-0.0096875,-0.081875
4.04,-0.0096875,-0.081875
4.041,-0.01,-0.081875
4.042,-0.01,-0.0821875
4.043,-0.01,-0.0821875
4.044,-0.0103125,-0.0821875
4.045,-0.0103125,-0.0821875
4.046,-0.0103125,-0.0821875
4.047,-0.010625,-0.0821875
4.048,-0.010625,-0.0821875
4.049,-0.010625,-0.0821875
4.05,-0.0109375,-0.0821875
4.051,-0.0109375,-0.0821875
4.052,-0.0109375,-0.0821875
4.053,-0.01125,-0.0821875
4.054,-0.01125,-0.0821875
4.055,-0.01125,-0.0821875
4.056,-0.0115625,-0.0821875
4.057,-0.0115625,-0.0821875
4.058,-0.0115625,-0.081875
4.059,-0.011875,-0.081875
4.06,-0.011875,-0.081875
4.061,-0.011875,-0.081875
4.062,-0.011875,-0.081875
4.063,-0.011875,-0.081875
4.064,-0.0121875,-0.0815625
4.065,-0.0121875,-0.0815625
4.066,-0.0121875,-0.0815625
4.067,-0.0125,-0.08125
4.068,-0.0125,-0.08125
4.069,-0.0125,-0.0809375
4.07,-0.0125,-0.080625
4.071,-0.0125,-0.080625
4.072,-0.0125,-0.08
4.073,-0.0128125,-0.08
4.074,-0.0128125,-0.0796875
4.075,-0.0128125,-0.079375
4.076,-0.0128125,-0.079375
4.077,-0.0128125,-0.0790625
4.078,-0.0128125,-0.07875
4.079,-0.0128125,-0.07875
4.08,-0.013125,-0.0784375
4.081,-0.013125,-0.078125
4.082,-0.013125,-0.078125
4.083,-0.013125,-0.0778125
4.084,-0.013125,-0.0775
4.085,-0.013125,-0.0771875
4.086,-0.013125,-0.0771875
4.087,-0.013125,-0.076875
4.088,-0.013125,-0.0765625
4.089,-0.013125,-0.0765625
4.09,-0.013125,-0.07625
4.091,-0.013125,-0.0759375
4.092,-0.0128125,-0.0759375
4.093,-0.0128125,-0.075625
4.094,-0.0128125,-0.075625
4.095,-0.0128125,-0.075625
4.096,-0.0128125,-0.0753125
4.097,-0.0128125,-0.0753125
4.098,-0.0128125,-0.075
4.099,-0.0125,-0.075
4.1,-0.0125,-0.075
4.101,-0.0125,-0.075
4.102,-0.0121875,-0.075
4.103,-0.0121875,-0.075
4.104,-0.0121875,-0.0746875
4.105,-0.011875,-0.0746875
4.106,-0.011875,-0.0746875
4.107,-0.011875,-0.074375
4.108,-0.0115625,-0.074375
4.109,-0.0115625,-0.074375
4.11,-0.01125,-0.0740625
4.111,-0.01125,-0.0740625
4.112,-0.01125,-0.07375
4.113,-0.0109375,-0.07375
4.114,-0.0109375,-0.07375
4.115,-0.010625,-0.0734375
4.116,-0.010625,-0.0734375
4.117,-0.010625,-0.0734375
4.118,-0.0103125,-0.0734375
4.119,-0.0103125,-0.0734375
4.12,-0.01,-0.0734375
4.121,-0.01,-0.0734375
4.122,-0.01,-0.0734375
4.123,-0.0096875,-0.0734375
4.124,-0.0096875,-0.0734375
4.125,-0.0096875,-0.0734375
4.126,-0.009375,-0.0734375
4.127,-0.009375,-0.073125
4.128,-0.009375,-0.073125
4.129,-0.009375,-0.073125
4.13,-0.0090625,-0.073125
4.131,-0.0090625,-0.073125
4.132,-0.0090625,-0.073125
4.133,-0.0090625,-0.073125
4.134,-0.0090625,-0.073125
4.135,-0.0090625,-0.073125
4.136,-0.0090625,-0.0734375
4.137,-0.0090625,-0.0734375
4.138,-0.0090625,-0.0734375
4.139,-0.0090625,-0.0734375
4.14,-0.0090625,-0.07375
4.141,-0.0090625,-0.07375
4.142,-0.0090625,-0.07375
4.143,-0.0090625,-0.0740625
4.144,-0.0090625,-0.0740625
4.145,-0.0090625,-0.0740625
4.146,-0.0090625,-0.074375
4.147,-0.0090625,-0.074375
4.148,-0.0090625,-0.074375
4.149,-0.0090625,-0.074375
4.15,-0.0090625,-0.0746875
4.151,-0.0090625,-0.0746875
4.152,-0.0090625,-0.0746875
4.153,-0.0090625,-0.0746875
4.154,-0.0090625,-0.0746875
4.155,-0.0090625,-0.075
4.156,-0.0090625,-0.075
4.157,-0.0090625,-0.075
4.158,-0.0090625,-0.0753125
4.159,-0.0090625,-0.0753125
4.16,-0.00875,-0.0753125
4.161,-0.00875,-0.075625
4.162,-0.00875,-0.075625
4.163,-0.00875,-0.075625
4.164,-0.00875,-0.075625
4.165,-0.00875,-0.075625
4.166,-0.0084375,-0.075625
4.167,-0.0084375,-0.0759375
4.168,-0.0084375,-0.075625
4.169,-0.0084375,-0.075625
4.17,-0.0084375,-0.075625
4.171,-0.008125,-0.075625
4.172,-0.008125,-0.075625
4.173,-0.008125,-0.075625
4.174,-0.008125,-0.075625
4.175,-0.008125,-0.075625
4.176,-0.008125,-0.075625
4.177,-0.008125,-0.0753125
4.178,-0.0078125,-0.0753125
4.179,-0.0078125,-0.0753125
4.18,-0.0078125,-0.075
4.181,-0.0078125,-0.075
4.182,-0.0078125,-0.075
4.183,-0.0078125,-0.0746875
4.184,-0.0078125,-0.0746875
4.185,-0.0078125,-0.074375
4.186,-0.0078125,-0.0740625
4.187,-0.0078125,-0.0740625
4.188,-0.0078125,-0.07375
4.189,-0.0075,-0.07375
4.19,-0.0075,-0.073125
4.191,-0.0075,-0.073125
4.192,-0.0075,-0.0728125
4.193,-0.0075,-0.0725
4.194,-0.0075,-0.0725
4.195,-0.0075,-0.0721875
4.196,-0.0075,-0.071875
4.197,-0.0075,-0.0715625
4.198,-0.0075,-0.0715625
4.199,-0.0075,-0.07125
4.2,-0.0075,-0.07125
4.201,-0.0075,-0.0709375
4.202,-0.0075,-0.070625
4.203,-0.0075,-0.070625
4.204,-0.0075,-0.0703125
4.205,-0.0075,-0.0703125
4.206,-0.0075,-0.07
4.207,-0.0071875,-0.07
4.208,-0.0071875,-0.07
4.209,-0.0071875,-0.0696875
4.21,-0.0071875,-0.0696875
4.211,-0.0071875,-0.069375
4.212,-0.0071875,-0.069375
4.213,-0.0071875,-0.069375
4.214,-0.0071875,-0.069375
4.215,-0.0071875,-0.069375
4.216,-0.006875,-0.0696875
4.217,-0.006875,-0.0696875
4.218,-0.006875,-0.0696875
4.219,-0.006875,-0.07
4.22,-0.0065625,-0.07
4.221,-0.0065625,-0.07
4.222,-0.00625,-0.0703125
4.223,-0.00625,-0.070625
4.224,-0.00625,-0.070625
4.225,-0.0059375,-0.070625
4.226,-0.0059375,-0.0709375
4.227,-0.005625,-0.07125
4.228,-0.005625,-0.07125
4.229,-0.0053125,-0.0715625
4.23,-0.0053125,-0.0721875
4.231,-0.005,-0.0721875
4.232,-0.0046875,-0.0728125
4.233,-0.0046875,-0.0728125
4.234,-0.0046875,-0.0734375
4.235,-0.004375,-0.07375
4.236,-0.0040625,-0.0740625
4.237,-0.00375,-0.074375
4.238,-0.00375,-0.075
4.239,-0.0034375,-0.0753125
4.24,-0.003125,-0.0759375
4.241,-0.003125,-0.07625
4.242,-0.0025,-0.076875
4.243,-0.0025,-0.0771875
4.244,-0.0021875,-0.0778125
4.245,-0.001875,-0.078125
4.246,-0.001875,-0.0784375
4.247,-0.00125,-0.0790625
4.248,-0.00125,-0.079375
4.249,-0.0009375,-0.0796875
4.25,-0.000625,-0.0803125
4.251,-0.000625,-0.080625
4.252,-0.0003125,-0.0809375
4.253,0,-0.08125
4.254,0,-0.081875
4.255,0.0003125,-0.0821875
4.256,0.0003125,-0.0825
4.257,0.000625,-0.0828125
4.258,0.0009375,-0.0834375
4.259,0.0009375,-0.08375
4.26,0.00125,-0.0840625
4.261,0.00125,-0.0846875
4.262,0.00125,-0.085
4.263,0.0015625,-0.0853125
4.264,0.0015625,-0.085625
4.265,0.001875,-0.08625
4.266,0.001875,-0.0865625
4.267,0.001875,-0.086875
4.268,0.0021875,-0.0875
4.269,0.0021875,-0.0878125
4.27,0.0021875,-0.088125
4.271,0.0021875,-0.08875
4.272,0.0021875,-0.0890625
4.273,0.0025,-0.0896875
4.274,0.0025,-0.09
4.275,0.0025,-0.090625
4.276,0.0025,-0.0909375
4.277,0.0025,-0.091875
4.278,0.0028125,-0.0921875
4.279,0.0028125,-0.093125
4.28,0.0028125,-0.0934375
4.281,0.0028125,-0.094375
4.282,0.0028125,-0.0946875
4.283,0.0028125,-0.0953125
4.284,0.0028125,-0.09625
4.285,0.0028125,-0.0965625
4.286,0.0028125,-0.0971875
4.287,0.0028125,-0.0978125
4.288,0.003125,-0.0984375
4.289,0.003125,-0.0990625
4.29,0.003125,-0.0996875
4.291,0.003125,-0.1003125
4.292,0.003125,-0.100625
4.293,0.003125,-0.1015625
4.294,0.0028125,-0.1021875
4.295,0.0028125,-0.1025
4.296,0.0028125,-0.1034375
4.297,0.0028125,-0.10375
4.298,0.0028125,-0.1046875
4.299,0.0028125,-0.1053125
4.3,0.0028125,-0.105625
4.301,0.0028125,-0.1065625
4.302,0.0028125,-0.106875
4.303,0.0025,-0.1071875
4.304,0.0025,-0.1078125
4.305,0.0025,-0.1084375
4.306,0.0021875,-0.10875
4.307,0.0021875,-0.109375
4.308,0.0021875,-0.1096875
4.309,0.001875,-0.11
4.31,0.001875,-0.110625
4.311,0.001875,-0.1109375
4.312,0.0015625,-0.11125
4.313,0.0015625,-0.111875
4.314,0.0015625,-0.1121875
4.315,0.00125,-0.1125
4.316,0.00125,-0.113125
4.317,0.00125,-0.1134375
4.318,0.0009375,-0.1140625
4.319,0.0009375,-0.114375
4.32,0.000625,-0.115
4.321,0.000625,-0.1153125
4.322,0.000625,-0.1159375
4.323,0.0003125,-0.11625
4.324,0.0003125,-0.1165625
4.325,0,-0.1171875
4.326,0,-0.1175
4.327,0,-0.1178125
4.328,-0.0003125,-0.1184375
4.329,-0.0003125,-0.11875
4.33,-0.000625,-0.1190625
4.331,-0.000625,-0.119375
4.332,-0.000625,-0.12
4.333,-0.0009375,-0.1203125
4.334,-0.0009375,-0.120625
4.335,-0.00125,-0.12125
4.336,-0.00125,-0.1215625
4.337,-0.00125,-0.121875
4.338,-0.0015625,-0.1221875
4.339,-0.0015625,-0.1228125
4.34,-0.001875,-0.123125
4.341,-0.001875,-0.1234375
4.342,-0.001875,-0.12375
4.343,-0.0021875,-0.124375
4.344,-0.0021875,-0.1246875
4.345,-0.0025,-0.125
4.346,-0.0025,-0.1253125
4.347,-0.0025,-0.1253125
4.348,-0.0028125,-0.1259375
4.349,-0.0028125,-0.1259375
4.35,-0.003125,-0.12625
4.351,-0.003125,-0.1265625
4.352,-0.003125,-0.1265625
4.353,-0.0034375,-0.1265625
4.354,-0.0034375,-0.126875
4.355,-0.00375,-0.1271875
4.356,-0.00375,-0.1271875
4.357,-0.00375,-0.1275
4.358,-0.0040625,-0.1275
4.359,-0.0040625,-0.1275
4.36,-0.0040625,-0.1278125
4.361,-0.004375,-0.1278125
4.362,-0.004375,-0.1278125
4.363,-0.004375,-0.1278125
4.364,-0.0046875,-0.1278125
4.365,-0.0046875,-0.1278125
4.366,-0.0046875,-0.1278125
4.367,-0.005,-0.1278125
4.368,-0.005,-0.1278125
4.369,-0.005,-0.1278125
4.37,-0.0053125,-0.1275
4.371,-0.0053125,-0.1275
4.372,-0.0053125,-0.1275
4.373,-0.005625,-0.1271875
4.374,-0.005625,-0.1271875
4.375,-0.005625,-0.1271875
4.376,-0.005625,-0.126875
4.377,-0.005625,-0.126875
4.378,-0.005625,-0.126875
4.379,-0.005625,-0.1265625
4.38,-0.005625,-0.1265625
4.381,-0.005625,-0.1265625
4.382,-0.0053125,-0.12625
4.383,-0.0053125,-0.12625
4.384,-0.0053125,-0.12625
4.385,-0.0053125,-0.1259375
4.386,-0.0053125,-0.1259375
4.387,-0.005,-0.125625
4.388,-0.005,-0.125625
4.389,-0.005,-0.1253125
4.39,-0.0046875,-0.125
4.391,-0.0046875,-0.125
4.392,-0.0046875,-0.1246875
4.393,-0.004375,-0.124375
4.394,-0.004375,-0.124375
4.395,-0.004375,-0.1240625
4.396,-0.004375,-0.12375
4.397,-0.004375,-0.12375
4.398,-0.004375,-0.123125
4.399,-0.004375,-0.123125
4.4,-0.004375,-0.1228125
4.401,-0.004375,-0.1225
4.402,-0.004375,-0.1225
4.403,-0.004375,-0.121875
4.404,-0.0046875,-0.121875
4.405,-0.0046875,-0.12125
4.406,-0.0046875,-0.1209375
4.407,-0.005,-0.120625
4.408,-0.0053125,-0.1203125
4.409,-0.0053125,-0.1196875
4.41,-0.005625,-0.119375
4.411,-0.0059375,-0.1190625
4.412,-0.0059375,-0.1184375
4.413,-0.00625,-0.118125
4.414,-0.00625,-0.1178125
4.415,-0.006875,-0.1171875
4.416,-0.006875,-0.116875
4.417,-0.006875,-0.1165625
4.418,-0.0071875,-0.11625
4.419,-0.0075,-0.115625
4.42,-0.0075,-0.115625
4.421,-0.0078125,-0.1153125
4.422,-0.0078125,-0.1146875
4.423,-0.008125,-0.114375
4.424,-0.008125,-0.1140625
4.425,-0.008125,-0.11375
4.426,-0.008125,-0.1134375
4.427,-0.008125,-0.1128125
4.428,-0.008125,-0.1128125
4.429,-0.008125,-0.1121875
4.43,-0.008125,-0.1121875
4.431,-0.008125,-0.1115625
4.432,-0.0078125,-0.11125
4.433,-0.0078125,-0.11125
4.434,-0.0075,-0.1109375
4.435,-0.0071875,-0.1103125
4.436,-0.006875,-0.1103125
4.437,-0.006875,-0.11
4.438,-0.0065625,-0.11
4.439,-0.00625,-0.1096875
4.44,-0.0059375,-0.109375
4.441,-0.005625,-0.109375
4.442,-0.0053125,-0.1090625
4.443,-0.005,-0.1090625
4.444,-0.005,-0.10875
4.445,-0.0046875,-0.10875
4.446,-0.0040625,-0.1084375
4.447,-0.0040625,-0.1084375
4.448,-0.00375,-0.108125
4.449,-0.0034375,-0.1078125
4.45,-0.003125,-0.1078125
4.451,-0.003125,-0.1078125
4.452,-0.003125,-0.1075
4.453,-0.0028125,-0.1071875
4.454,-0.0028125,-0.106875
4.455,-0.0025,-0.106875
4.456,-0.0025,-0.1065625
4.457,-0.0025,-0.1065625
4.458,-0.0025,-0.10625
4.459,-0.0025,-0.10625
4.46,-0.0025,-0.1059375
4.461,-0.0025,-0.1059375
4.462,-0.0025,-0.1059375
4.463,-0.0025,-0.105625
4.464,-0.0025,-0.105625
4.465,-0.0025,-0.1053125
4.466,-0.0025,-0.105
4.467,-0.0028125,-0.105
4.468,-0.0028125,-0.1046875
4.469,-0.0028125,-0.1040625
4.47,-0.003125,-0.1040625
4.471,-0.003125,-0.1034375
4.472,-0.0034375,-0.1034375
4.473,-0.0034375,-0.103125
4.474,-0.00375,-0.1025
4.475,-0.00375,-0.1025
4.476,-0.00375,-0.1021875
4.477,-0.0040625,-0.101875
4.478,-0.0040625,-0.101875
4.479,-0.004375,-0.1015625
4.48,-0.004375,-0.10125
4.481,-0.004375,-0.1009375
4.482,-0.0046875,-0.1009375
4.483,-0.0046875,-0.100625
4.484,-0.0046875,-0.100625
4.485,-0.005,-0.100625
4.486,-0.005,-0.1003125
4.487,-0.005,-0.1
4.488,-0.005,-0.0996875
4.489,-0.005,-0.0996875
4.49,-0.005,-0.099375
4.491,-0.005,-0.0990625
4.492,-0.0053125,-0.0990625
4.493,-0.0053125,-0.09875
4.494,-0.0053125,-0.0984375
4.495,-0.0053125,-0.098125
4.496,-0.005,-0.098125
4.497,-0.005,-0.0978125
4.498,-0.005,-0.0978125
4.499,-0.005,-0.0978125
4.5,-0.005,-0.0978125
4.501,-0.005,-0.0978125
4.502,-0.005,-0.0975
4.503,-0.005,-0.0975
4.504,-0.005,-0.0975
4.505,-0.005,-0.0975
4.506,-0.0046875,-0.0975
4.507,-0.0046875,-0.0975
4.508,-0.0046875,-0.0975
4.509,-0.0046875,-0.0975
4.51,-0.0046875,-0.0975
4.511,-0.0046875,-0.0971875
4.512,-0.0046875,-0.0971875
4.513,-0.0046875,-0.096875
4.514,-0.0046875,-0.096875
4.515,-0.0046875,-0.096875
4.516,-0.0046875,-0.096875
4.517,-0.0046875,-0.096875
4.518,-0.0046875,-0.096875
4.519,-0.0046875,-0.0971875
4.52,-0.0046875,-0.0971875
4.521,-0.0046875,-0.0971875
4.522,-0.0046875,-0.0975
4.523,-0.0046875,-0.0978125
4.524,-0.0046875,-0.0978125
4.525,-0.0046875,-0.0978125
4.526,-0.0046875,-0.098125
4.527,-0.0046875,-0.098125
4.528,-0.0046875,-0.0984375
4.529,-0.0046875,-0.0984375
4.53,-0.0046875,-0.0984375
4.531,-0.005,-0.0984375
4.532,-0.005,-0.098125
4.533,-0.005,-0.098125
4.534,-0.005,-0.098125
4.535,-0.005,-0.098125
4.536,-0.005,-0.098125
4.537,-0.005,-0.098125
4.538,-0.005,-0.098125
4.539,-0.0053125,-0.098125
4.54,-0.0053125,-0.098125
4.541,-0.0053125,-0.098125
4.542,-0.0053125,-0.098125
4.543,-0.0053125,-0.098125
4.544,-0.0053125,-0.098125
4.545,-0.0053125,-0.098125
4.546,-0.0053125,-0.098125
4.547,-0.0053125,-0.0978125
4.548,-0.0053125,-0.0975
4.549,-0.0053125,-0.0975
4.55,-0.0053125,-0.0971875
4.551,-0.0053125,-0.096875
4.552,-0.005625,-0.09625
4.553,-0.005625,-0.09625
4.554,-0.005625,-0.095625
4.555,-0.005625,-0.095625
4.556,-0.005625,-0.0953125
4.557,-0.005625,-0.0946875
4.558,-0.0059375,-0.094375
4.559,-0.005625,-0.094375
4.56,-0.005625,-0.0940625
4.561,-0.005625,-0.09375
4.562,-0.005625,-0.09375
4.563,-0.005625,-0.0934375
4.564,-0.005625,-0.0934375
4.565,-0.005625,-0.0934375
4.566,-0.005625,-0.093125
4.567,-0.005625,-0.0928125
4.568,-0.005625,-0.0928125
4.569,-0.005625,-0.0928125
4.57,-0.005625,-0.0921875
4.571,-0.005625,-0.0921875
4.572,-0.005625,-0.091875
4.573,-0.005625,-0.0915625
4.574,-0.005625,-0.0915625
4.575,-0.005625,-0.09125
4.576,-0.005625,-0.09125
4.577,-0.005625,-0.09125
4.578,-0.005625,-0.0909375
4.579,-0.005625,-0.0909375
4.58,-0.005625,-0.0909375
