Interval=,0.001 s,
ExcelDateTime=,4.54E+04,06:55.8
TimeFormat=,StartOfBlock,
DateFormat=,,
ChannelTitle=,Channel 3,Channel 4
Range=,10.000 mV,10.000 mV
0,0,0
0.001,0,0
0.002,0,0
0.003,0,0
0.004,-0.0003125,0
0.005,-0.0003125,0
0.006,-0.0003125,0
0.007,-0.0003125,0.0003125
0.008,-0.0003125,0.0003125
0.009,-0.0003125,0.0003125
0.01,-0.0003125,0.000625
0.011,-0.0003125,0.00125
0.012,-0.0003125,0.0015625
0.013,-0.000625,0.001875
0.014,-0.000625,0.0028125
0.015,-0.0009375,0.0034375
0.016,-0.0009375,0.00375
0.017,-0.0009375,0.0046875
0.018,-0.00125,0.005625
0.019,-0.00125,0.00625
0.02,-0.00125,0.0075
0.021,-0.0015625,0.008125
0.022,-0.0015625,0.009375
0.023,-0.001875,0.010625
0.024,-0.001875,0.0115625
0.025,-0.0021875,0.0128125
0.026,-0.0025,0.0140625
0.027,-0.0025,0.0153125
0.028,-0.003125,0.016875
0.029,-0.003125,0.018125
0.03,-0.0034375,0.02
0.031,-0.00375,0.0215625
0.032,-0.0040625,0.0234375
0.033,-0.0046875,0.025
0.034,-0.0046875,0.0265625
0.035,-0.0053125,0.02875
0.036,-0.005625,0.030625
0.037,-0.0059375,0.0328125
0.038,-0.00625,0.0346875
0.039,-0.006875,0.036875
0.04,-0.0071875,0.0384375
0.041,-0.0075,0.040625
0.042,-0.0078125,0.0421875
0.043,-0.008125,0.0440625
0.044,-0.0084375,0.04625
0.045,-0.00875,0.0478125
0.046,-0.009375,0.049375
0.047,-0.0096875,0.05125
0.048,-0.01,0.0525
0.049,-0.0103125,0.054375
0.05,-0.0109375,0.055625
0.051,-0.01125,0.0571875
0.052,-0.0115625,0.05875
0.053,-0.011875,0.0603125
0.054,-0.0125,0.0615625
0.055,-0.0128125,0.063125
0.056,-0.013125,0.064375
0.057,-0.0134375,0.0659375
0.058,-0.0140625,0.0671875
0.059,-0.0140625,0.0684375
0.06,-0.0146875,0.069375
0.061,-0.0146875,0.0703125
0.062,-0.015,0.0715625
0.063,-0.0153125,0.0721875
0.064,-0.0153125,0.073125
0.065,-0.015625,0.0734375
0.066,-0.0159375,0.074375
0.067,-0.01625,0.0746875
0.068,-0.01625,0.075
0.069,-0.0165625,0.075625
0.07,-0.0165625,0.0759375
0.071,-0.016875,0.07625
0.072,-0.0171875,0.0765625
0.073,-0.0171875,0.076875
0.074,-0.0175,0.0771875
0.075,-0.0178125,0.0775
0.076,-0.018125,0.0778125
0.077,-0.018125,0.078125
0.078,-0.018125,0.0784375
0.079,-0.0184375,0.07875
0.08,-0.0184375,0.07875
0.081,-0.0184375,0.0790625
0.082,-0.01875,0.0790625
0.083,-0.01875,0.0790625
0.084,-0.01875,0.0790625
0.085,-0.01875,0.07875
0.086,-0.01875,0.07875
0.087,-0.01875,0.07875
0.088,-0.01875,0.0784375
0.089,-0.01875,0.0784375
0.09,-0.01875,0.078125
0.091,-0.01875,0.078125
0.092,-0.01875,0.078125
0.093,-0.01875,0.0778125
0.094,-0.0190625,0.0778125
0.095,-0.0190625,0.0778125
0.096,-0.0190625,0.078125
0.097,-0.01875,0.078125
0.098,-0.01875,0.078125
0.099,-0.01875,0.078125
0.1,-0.01875,0.078125
0.101,-0.01875,0.078125
0.102,-0.01875,0.078125
0.103,-0.01875,0.078125
0.104,-0.0184375,0.0778125
0.105,-0.0184375,0.0778125
0.106,-0.0184375,0.0778125
0.107,-0.018125,0.0775
0.108,-0.018125,0.0775
0.109,-0.018125,0.0775
0.11,-0.018125,0.0771875
0.111,-0.018125,0.0771875
0.112,-0.018125,0.0771875
0.113,-0.018125,0.0771875
0.114,-0.018125,0.0771875
0.115,-0.018125,0.0771875
0.116,-0.0178125,0.0771875
0.117,-0.0178125,0.0775
0.118,-0.0178125,0.0775
0.119,-0.0178125,0.0778125
0.12,-0.0178125,0.0778125
0.121,-0.0175,0.0778125
0.122,-0.0175,0.0778125
0.123,-0.0175,0.0778125
0.124,-0.0171875,0.0778125
0.125,-0.0171875,0.0778125
0.126,-0.016875,0.0778125
0.127,-0.016875,0.0778125
0.128,-0.016875,0.0778125
0.129,-0.0165625,0.0778125
0.13,-0.0165625,0.0778125
0.131,-0.01625,0.0778125
0.132,-0.01625,0.0778125
0.133,-0.01625,0.078125
0.134,-0.0159375,0.0784375
0.135,-0.0159375,0.0784375
0.136,-0.0159375,0.0790625
0.137,-0.015625,0.0790625
0.138,-0.015625,0.0796875
0.139,-0.015625,0.08
0.14,-0.0153125,0.0803125
0.141,-0.0153125,0.080625
0.142,-0.015,0.0809375
0.143,-0.0146875,0.0809375
0.144,-0.0146875,0.08125
0.145,-0.014375,0.0815625
0.146,-0.014375,0.081875
0.147,-0.014375,0.081875
0.148,-0.0140625,0.081875
0.149,-0.0140625,0.0821875
0.15,-0.01375,0.0821875
0.151,-0.01375,0.0825
0.152,-0.01375,0.0828125
0.153,-0.01375,0.0828125
0.154,-0.01375,0.0834375
0.155,-0.01375,0.0834375
0.156,-0.01375,0.0840625
0.157,-0.01375,0.084375
0.158,-0.01375,0.0846875
0.159,-0.0140625,0.085
0.16,-0.0140625,0.0853125
0.161,-0.0140625,0.085625
0.162,-0.0140625,0.0859375
0.163,-0.0140625,0.0859375
0.164,-0.0140625,0.0859375
0.165,-0.0140625,0.08625
0.166,-0.0140625,0.08625
0.167,-0.014375,0.08625
0.168,-0.014375,0.08625
0.169,-0.014375,0.08625
0.17,-0.0146875,0.0865625
0.171,-0.015,0.0865625
0.172,-0.015,0.0865625
0.173,-0.015,0.086875
0.174,-0.015625,0.0871875
0.175,-0.015625,0.0871875
0.176,-0.015625,0.0875
0.177,-0.0159375,0.0878125
0.178,-0.01625,0.0878125
0.179,-0.0165625,0.0884375
0.18,-0.0165625,0.0884375
0.181,-0.0165625,0.08875
0.182,-0.016875,0.08875
0.183,-0.016875,0.08875
0.184,-0.016875,0.08875
0.185,-0.0171875,0.08875
0.186,-0.0171875,0.08875
0.187,-0.0171875,0.08875
0.188,-0.0175,0.08875
0.189,-0.0175,0.08875
0.19,-0.0175,0.08875
0.191,-0.0175,0.08875
0.192,-0.0178125,0.0884375
0.193,-0.0178125,0.08875
0.194,-0.0178125,0.08875
0.195,-0.0178125,0.08875
0.196,-0.0178125,0.08875
0.197,-0.018125,0.08875
0.198,-0.0178125,0.08875
0.199,-0.0178125,0.08875
0.2,-0.0178125,0.08875
0.201,-0.0178125,0.08875
0.202,-0.0178125,0.08875
0.203,-0.0178125,0.0884375
0.204,-0.0178125,0.088125
0.205,-0.0178125,0.088125
0.206,-0.0175,0.0878125
0.207,-0.0175,0.0875
0.208,-0.0175,0.0871875
0.209,-0.0175,0.086875
0.21,-0.0175,0.0865625
0.211,-0.0175,0.0865625
0.212,-0.0175,0.08625
0.213,-0.0175,0.0859375
0.214,-0.0175,0.0859375
0.215,-0.0175,0.085625
0.216,-0.0175,0.085625
0.217,-0.0175,0.085625
0.218,-0.0175,0.085625
0.219,-0.0175,0.0853125
0.22,-0.0178125,0.0853125
0.221,-0.0178125,0.0853125
0.222,-0.0178125,0.085
0.223,-0.0178125,0.085
0.224,-0.0178125,0.0846875
0.225,-0.0178125,0.084375
0.226,-0.0178125,0.084375
0.227,-0.0178125,0.0840625
0.228,-0.0178125,0.08375
0.229,-0.0178125,0.0834375
0.23,-0.0178125,0.083125
0.231,-0.0178125,0.083125
0.232,-0.018125,0.083125
0.233,-0.018125,0.083125
0.234,-0.018125,0.0828125
0.235,-0.018125,0.083125
0.236,-0.018125,0.083125
0.237,-0.018125,0.083125
0.238,-0.018125,0.083125
0.239,-0.018125,0.083125
0.24,-0.0178125,0.0834375
0.241,-0.0178125,0.0834375
0.242,-0.0178125,0.0834375
0.243,-0.0178125,0.0834375
0.244,-0.0178125,0.0834375
0.245,-0.0175,0.0834375
0.246,-0.0175,0.0834375
0.247,-0.0175,0.0834375
0.248,-0.0175,0.08375
0.249,-0.0175,0.08375
0.25,-0.0175,0.08375
0.251,-0.0175,0.08375
0.252,-0.0175,0.0840625
0.253,-0.0178125,0.084375
0.254,-0.0178125,0.084375
0.255,-0.0178125,0.0846875
0.256,-0.0178125,0.085
0.257,-0.0175,0.0853125
0.258,-0.0175,0.0853125
0.259,-0.0175,0.085625
0.26,-0.0175,0.0859375
0.261,-0.0175,0.08625
0.262,-0.0175,0.08625
0.263,-0.0175,0.0865625
0.264,-0.0171875,0.0865625
0.265,-0.0171875,0.0865625
0.266,-0.0171875,0.0865625
0.267,-0.0171875,0.0865625
0.268,-0.0171875,0.0865625
0.269,-0.016875,0.0865625
0.27,-0.016875,0.08625
0.271,-0.016875,0.08625
0.272,-0.016875,0.0865625
0.273,-0.016875,0.0865625
0.274,-0.016875,0.0865625
0.275,-0.016875,0.0865625
0.276,-0.0165625,0.0865625
0.277,-0.0165625,0.0865625
0.278,-0.0165625,0.0865625
0.279,-0.0165625,0.0865625
0.28,-0.01625,0.0865625
0.281,-0.01625,0.08625
0.282,-0.01625,0.08625
0.283,-0.0159375,0.08625
0.284,-0.0159375,0.0859375
0.285,-0.0159375,0.085625
0.286,-0.015625,0.0853125
0.287,-0.015625,0.0853125
0.288,-0.015625,0.0846875
0.289,-0.015625,0.0846875
0.29,-0.015625,0.084375
0.291,-0.015625,0.0840625
0.292,-0.015625,0.0840625
0.293,-0.015625,0.08375
0.294,-0.015625,0.08375
0.295,-0.015625,0.08375
0.296,-0.015625,0.0834375
0.297,-0.015625,0.0834375
0.298,-0.0159375,0.0834375
0.299,-0.0159375,0.0834375
0.3,-0.0159375,0.0834375
0.301,-0.01625,0.083125
0.302,-0.01625,0.083125
0.303,-0.0165625,0.0828125
0.304,-0.0165625,0.0825
0.305,-0.0165625,0.0825
0.306,-0.016875,0.0821875
0.307,-0.016875,0.081875
0.308,-0.0171875,0.0815625
0.309,-0.0171875,0.0815625
0.31,-0.0171875,0.0809375
0.311,-0.0175,0.0809375
0.312,-0.0175,0.0809375
0.313,-0.0178125,0.080625
0.314,-0.0178125,0.080625
0.315,-0.018125,0.080625
0.316,-0.018125,0.080625
0.317,-0.018125,0.080625
0.318,-0.0184375,0.080625
0.319,-0.0184375,0.0803125
0.32,-0.0184375,0.0803125
0.321,-0.0184375,0.0803125
0.322,-0.0184375,0.0803125
0.323,-0.0184375,0.0803125
0.324,-0.0184375,0.08
0.325,-0.0184375,0.08
0.326,-0.0184375,0.0796875
0.327,-0.0184375,0.0796875
0.328,-0.0184375,0.079375
0.329,-0.018125,0.079375
0.33,-0.018125,0.0790625
0.331,-0.018125,0.0790625
0.332,-0.018125,0.0790625
0.333,-0.018125,0.0790625
0.334,-0.018125,0.0790625
0.335,-0.0178125,0.0790625
0.336,-0.0178125,0.0790625
0.337,-0.0178125,0.0790625
0.338,-0.0175,0.079375
0.339,-0.0175,0.079375
0.34,-0.0171875,0.079375
0.341,-0.0171875,0.0796875
0.342,-0.0171875,0.0796875
0.343,-0.016875,0.08
0.344,-0.016875,0.08
0.345,-0.016875,0.08
0.346,-0.0165625,0.08
0.347,-0.0165625,0.08
0.348,-0.0165625,0.08
0.349,-0.01625,0.0803125
0.35,-0.01625,0.0803125
0.351,-0.01625,0.0803125
0.352,-0.01625,0.080625
0.353,-0.01625,0.080625
0.354,-0.01625,0.08125
0.355,-0.01625,0.08125
0.356,-0.01625,0.0815625
0.357,-0.01625,0.081875
0.358,-0.01625,0.0821875
0.359,-0.01625,0.0825
0.36,-0.01625,0.0828125
0.361,-0.01625,0.083125
0.362,-0.0159375,0.0834375
0.363,-0.0159375,0.0834375
0.364,-0.0159375,0.0834375
0.365,-0.0159375,0.08375
0.366,-0.0159375,0.08375
0.367,-0.0159375,0.08375
0.368,-0.0159375,0.0840625
0.369,-0.0159375,0.0840625
0.37,-0.0159375,0.0840625
0.371,-0.0159375,0.0840625
0.372,-0.01625,0.084375
0.373,-0.01625,0.084375
0.374,-0.01625,0.084375
0.375,-0.01625,0.0846875
0.376,-0.01625,0.0846875
0.377,-0.01625,0.085
0.378,-0.01625,0.085
0.379,-0.0159375,0.085
0.38,-0.0159375,0.085
0.381,-0.0159375,0.085
0.382,-0.0159375,0.085
0.383,-0.0159375,0.085
0.384,-0.0159375,0.0846875
0.385,-0.0159375,0.0846875
0.386,-0.0159375,0.084375
0.387,-0.0159375,0.0840625
0.388,-0.0159375,0.0840625
0.389,-0.0159375,0.08375
0.39,-0.0159375,0.0834375
0.391,-0.0159375,0.083125
0.392,-0.0159375,0.083125
0.393,-0.01625,0.083125
0.394,-0.01625,0.0828125
0.395,-0.01625,0.0828125
0.396,-0.01625,0.0828125
0.397,-0.01625,0.0825
0.398,-0.01625,0.0825
0.399,-0.0159375,0.0825
0.4,-0.0159375,0.0825
0.401,-0.0159375,0.0821875
0.402,-0.0159375,0.0821875
0.403,-0.0159375,0.081875
0.404,-0.015625,0.0815625
0.405,-0.015625,0.0815625
0.406,-0.0153125,0.0809375
0.407,-0.0153125,0.080625
0.408,-0.0153125,0.080625
0.409,-0.015,0.0803125
0.41,-0.015,0.08
0.411,-0.015,0.08
0.412,-0.0146875,0.0796875
0.413,-0.0146875,0.079375
0.414,-0.0146875,0.079375
0.415,-0.0146875,0.079375
0.416,-0.0146875,0.079375
0.417,-0.0146875,0.079375
0.418,-0.014375,0.0790625
0.419,-0.014375,0.0790625
0.42,-0.014375,0.0790625
0.421,-0.014375,0.0790625
0.422,-0.014375,0.0790625
0.423,-0.0140625,0.07875
0.424,-0.0140625,0.07875
0.425,-0.0140625,0.07875
0.426,-0.0140625,0.0784375
0.427,-0.0140625,0.0784375
0.428,-0.0140625,0.078125
0.429,-0.014375,0.0778125
0.43,-0.014375,0.0778125
0.431,-0.014375,0.0775
0.432,-0.0146875,0.0775
0.433,-0.0146875,0.0775
0.434,-0.015,0.0771875
0.435,-0.0153125,0.0771875
0.436,-0.0153125,0.0771875
0.437,-0.015625,0.0771875
0.438,-0.0159375,0.0771875
0.439,-0.0159375,0.0771875
0.44,-0.01625,0.0771875
0.441,-0.0165625,0.0771875
0.442,-0.016875,0.076875
0.443,-0.016875,0.076875
0.444,-0.0171875,0.076875
0.445,-0.0171875,0.07625
0.446,-0.0175,0.07625
0.447,-0.0178125,0.0759375
0.448,-0.0178125,0.0753125
0.449,-0.018125,0.0753125
0.45,-0.018125,0.0746875
0.451,-0.0184375,0.074375
0.452,-0.01875,0.074375
0.453,-0.01875,0.0740625
0.454,-0.0190625,0.07375
0.455,-0.019375,0.0734375
0.456,-0.019375,0.0734375
0.457,-0.019375,0.0734375
0.458,-0.0196875,0.073125
0.459,-0.0196875,0.073125
0.46,-0.0196875,0.0728125
0.461,-0.0196875,0.0725
0.462,-0.02,0.0725
0.463,-0.02,0.0721875
0.464,-0.0196875,0.071875
0.465,-0.0196875,0.071875
0.466,-0.0196875,0.07125
0.467,-0.0196875,0.07125
0.468,-0.0196875,0.070625
0.469,-0.0196875,0.070625
0.47,-0.0196875,0.0703125
0.471,-0.0196875,0.07
0.472,-0.0196875,0.07
0.473,-0.0196875,0.0696875
0.474,-0.019375,0.0696875
0.475,-0.019375,0.0696875
0.476,-0.019375,0.0696875
0.477,-0.019375,0.069375
0.478,-0.0190625,0.069375
0.479,-0.0190625,0.069375
0.48,-0.0190625,0.069375
0.481,-0.01875,0.069375
0.482,-0.01875,0.069375
0.483,-0.0184375,0.069375
0.484,-0.0184375,0.069375
0.485,-0.018125,0.0690625
0.486,-0.0178125,0.0690625
0.487,-0.0178125,0.06875
0.488,-0.0175,0.06875
0.489,-0.0175,0.0684375
0.49,-0.0171875,0.0684375
0.491,-0.0171875,0.068125
0.492,-0.016875,0.068125
0.493,-0.016875,0.068125
0.494,-0.0165625,0.068125
0.495,-0.0165625,0.0678125
0.496,-0.01625,0.068125
0.497,-0.01625,0.068125
0.498,-0.0159375,0.068125
0.499,-0.015625,0.068125
0.5,-0.015625,0.068125
0.501,-0.0153125,0.0678125
0.502,-0.0153125,0.0678125
0.503,-0.015,0.0678125
0.504,-0.0146875,0.0678125
0.505,-0.0146875,0.0678125
0.506,-0.014375,0.0675
0.507,-0.014375,0.0675
0.508,-0.0140625,0.0675
0.509,-0.0140625,0.0671875
0.51,-0.0140625,0.0671875
0.511,-0.01375,0.066875
0.512,-0.01375,0.066875
0.513,-0.01375,0.066875
0.514,-0.01375,0.0665625
0.515,-0.01375,0.0665625
0.516,-0.0134375,0.066875
0.517,-0.0134375,0.066875
0.518,-0.0134375,0.066875
0.519,-0.0134375,0.066875
0.52,-0.0134375,0.0665625
0.521,-0.0134375,0.0665625
0.522,-0.0134375,0.0665625
0.523,-0.0134375,0.0665625
0.524,-0.0134375,0.06625
0.525,-0.0134375,0.06625
0.526,-0.0134375,0.06625
0.527,-0.0134375,0.0659375
0.528,-0.0134375,0.065625
0.529,-0.0134375,0.065625
0.53,-0.01375,0.0653125
0.531,-0.01375,0.065
0.532,-0.01375,0.0646875
0.533,-0.0140625,0.0646875
0.534,-0.014375,0.0646875
0.535,-0.0146875,0.064375
0.536,-0.0146875,0.064375
0.537,-0.015,0.064375
0.538,-0.015,0.0640625
0.539,-0.0153125,0.0640625
0.54,-0.015625,0.0640625
0.541,-0.015625,0.06375
0.542,-0.0159375,0.06375
0.543,-0.01625,0.0634375
0.544,-0.0165625,0.063125
0.545,-0.016875,0.063125
0.546,-0.016875,0.0625
0.547,-0.0175,0.0625
0.548,-0.0175,0.061875
0.549,-0.018125,0.0615625
0.55,-0.018125,0.06125
0.551,-0.01875,0.0609375
0.552,-0.0190625,0.060625
0.553,-0.019375,0.0603125
0.554,-0.0196875,0.06
0.555,-0.0203125,0.06
0.556,-0.020625,0.059375
0.557,-0.0209375,0.059375
0.558,-0.0215625,0.0590625
0.559,-0.021875,0.05875
0.56,-0.0221875,0.05875
0.561,-0.0228125,0.058125
0.562,-0.0228125,0.058125
0.563,-0.023125,0.0578125
0.564,-0.0234375,0.0575
0.565,-0.02375,0.0571875
0.566,-0.02375,0.056875
0.567,-0.02375,0.0565625
0.568,-0.02375,0.05625
0.569,-0.02375,0.05625
0.57,-0.02375,0.0559375
0.571,-0.02375,0.055625
0.572,-0.0234375,0.055625
0.573,-0.0228125,0.055625
0.574,-0.0225,0.0559375
0.575,-0.021875,0.05625
0.576,-0.02125,0.05625
0.577,-0.0203125,0.056875
0.578,-0.019375,0.0571875
0.579,-0.0184375,0.0578125
0.58,-0.0171875,0.0584375
0.581,-0.015625,0.059375
0.582,-0.0140625,0.06
0.583,-0.0125,0.0609375
0.584,-0.0103125,0.061875
0.585,-0.0084375,0.063125
0.586,-0.00625,0.064375
0.587,-0.00375,0.065625
0.588,-0.00125,0.0671875
0.589,0.001875,0.06875
0.59,0.0046875,0.0703125
0.591,0.0078125,0.0725
0.592,0.0109375,0.0746875
0.593,0.014375,0.0771875
0.594,0.0178125,0.0796875
0.595,0.0215625,0.0821875
0.596,0.0253125,0.0853125
0.597,0.0296875,0.088125
0.598,0.03375,0.091875
0.599,0.038125,0.095
0.6,0.0428125,0.09875
0.601,0.0471875,0.1028125
0.602,0.051875,0.1065625
0.603,0.056875,0.110625
0.604,0.061875,0.1153125
0.605,0.066875,0.119375
0.606,0.0725,0.1240625
0.607,0.0775,0.12875
0.608,0.083125,0.13375
0.609,0.0884375,0.13875
0.61,0.094375,0.1440625
0.611,0.0996875,0.149375
0.612,0.105625,0.155
0.613,0.1115625,0.1609375
0.614,0.1171875,0.1665625
0.615,0.1234375,0.1725
0.616,0.129375,0.17875
0.617,0.1353125,0.185
0.618,0.1415625,0.1915625
0.619,0.1475,0.198125
0.62,0.1540625,0.2046875
0.621,0.16,0.2115625
0.622,0.16625,0.218125
0.623,0.173125,0.2246875
0.624,0.179375,0.231875
0.625,0.185625,0.23875
0.626,0.191875,0.2453125
0.627,0.198125,0.2525
0.628,0.2046875,0.2590625
0.629,0.21125,0.26625
0.63,0.2171875,0.2734375
0.631,0.22375,0.2803125
0.632,0.23,0.2871875
0.633,0.2365625,0.294375
0.634,0.2425,0.3015625
0.635,0.24875,0.3084375
0.636,0.255,0.315625
0.637,0.2609375,0.3228125
0.638,0.2671875,0.3296875
0.639,0.2734375,0.336875
0.64,0.279375,0.3434375
0.641,0.285625,0.350625
0.642,0.2915625,0.3571875
0.643,0.2971875,0.3640625
0.644,0.303125,0.370625
0.645,0.3090625,0.3771875
0.646,0.314375,0.3834375
0.647,0.3203125,0.3903125
0.648,0.3259375,0.3965625
0.649,0.33125,0.4025
0.65,0.3365625,0.4084375
0.651,0.3421875,0.4146875
0.652,0.3471875,0.4203125
0.653,0.3521875,0.42625
0.654,0.3571875,0.4321875
0.655,0.3621875,0.4378125
0.656,0.366875,0.443125
0.657,0.3715625,0.4484375
0.658,0.37625,0.45375
0.659,0.380625,0.45875
0.66,0.3846875,0.4634375
0.661,0.389375,0.468125
0.662,0.3934375,0.4725
0.663,0.3975,0.4765625
0.664,0.4015625,0.480625
0.665,0.4053125,0.484375
0.666,0.4090625,0.488125
0.667,0.4128125,0.4915625
0.668,0.41625,0.4946875
0.669,0.4196875,0.4975
0.67,0.4228125,0.5003125
0.671,0.4259375,0.5028125
0.672,0.4290625,0.505
0.673,0.431875,0.5071875
0.674,0.4346875,0.509375
0.675,0.4371875,0.510625
0.676,0.4396875,0.5125
0.677,0.4421875,0.51375
0.678,0.4440625,0.5146875
0.679,0.4465625,0.515625
0.68,0.44875,0.51625
0.681,0.4503125,0.5165625
0.682,0.4521875,0.5165625
0.683,0.4540625,0.5165625
0.684,0.455625,0.51625
0.685,0.4571875,0.5153125
0.686,0.4584375,0.515
0.687,0.4596875,0.51375
0.688,0.4609375,0.5125
0.689,0.461875,0.51125
0.69,0.4628125,0.509375
0.691,0.4634375,0.5078125
0.692,0.464375,0.5059375
0.693,0.465,0.50375
0.694,0.4653125,0.5015625
0.695,0.465625,0.499375
0.696,0.46625,0.496875
0.697,0.46625,0.4940625
0.698,0.46625,0.49125
0.699,0.46625,0.488125
0.7,0.46625,0.4853125
0.701,0.46625,0.481875
0.702,0.4659375,0.4784375
0.703,0.465625,0.4746875
0.704,0.4653125,0.4709375
0.705,0.465,0.4671875
0.706,0.464375,0.463125
0.707,0.4634375,0.4590625
0.708,0.463125,0.4546875
0.709,0.4621875,0.450625
0.71,0.46125,0.4459375
0.711,0.4603125,0.4415625
0.712,0.4590625,0.436875
0.713,0.458125,0.4321875
0.714,0.456875,0.4275
0.715,0.455625,0.4228125
0.716,0.454375,0.418125
0.717,0.4528125,0.413125
0.718,0.4515625,0.408125
0.719,0.45,0.4034375
0.72,0.4484375,0.3984375
0.721,0.446875,0.3934375
0.722,0.4453125,0.388125
0.723,0.44375,0.383125
0.724,0.4421875,0.378125
0.725,0.4403125,0.3728125
0.726,0.4384375,0.3675
0.727,0.436875,0.3625
0.728,0.4353125,0.3571875
0.729,0.433125,0.3521875
0.73,0.4315625,0.3471875
0.731,0.429375,0.341875
0.732,0.4275,0.336875
0.733,0.4259375,0.3321875
0.734,0.42375,0.3271875
0.735,0.4221875,0.3221875
0.736,0.42,0.3178125
0.737,0.4184375,0.3128125
0.738,0.41625,0.308125
0.739,0.4146875,0.30375
0.74,0.4128125,0.2990625
0.741,0.4109375,0.2946875
0.742,0.409375,0.2903125
0.743,0.4075,0.285625
0.744,0.4059375,0.2809375
0.745,0.4040625,0.2765625
0.746,0.4025,0.2725
0.747,0.4009375,0.268125
0.748,0.3990625,0.2640625
0.749,0.3975,0.2596875
0.75,0.3959375,0.2559375
0.751,0.3940625,0.2515625
0.752,0.3928125,0.2478125
0.753,0.3909375,0.2440625
0.754,0.389375,0.2403125
0.755,0.3878125,0.2365625
0.756,0.38625,0.233125
0.757,0.3846875,0.229375
0.758,0.3834375,0.22625
0.759,0.381875,0.2228125
0.76,0.38,0.219375
0.761,0.37875,0.21625
0.762,0.3771875,0.213125
0.763,0.375625,0.2096875
0.764,0.3740625,0.206875
0.765,0.3728125,0.20375
0.766,0.3709375,0.2003125
0.767,0.3696875,0.1975
0.768,0.368125,0.194375
0.769,0.3665625,0.1915625
0.77,0.365,0.18875
0.771,0.3634375,0.1859375
0.772,0.361875,0.183125
0.773,0.3603125,0.180625
0.774,0.35875,0.178125
0.775,0.3571875,0.175625
0.776,0.355625,0.173125
0.777,0.3540625,0.1709375
0.778,0.3525,0.16875
0.779,0.3509375,0.16625
0.78,0.349375,0.164375
0.781,0.3478125,0.1621875
0.782,0.3465625,0.16
0.783,0.3446875,0.158125
0.784,0.3434375,0.1559375
0.785,0.341875,0.15375
0.786,0.3403125,0.151875
0.787,0.3390625,0.15
0.788,0.3375,0.148125
0.789,0.3359375,0.1459375
0.79,0.3346875,0.144375
0.791,0.333125,0.1428125
0.792,0.331875,0.1409375
0.793,0.330625,0.139375
0.794,0.3290625,0.1378125
0.795,0.3278125,0.13625
0.796,0.3265625,0.135
0.797,0.3253125,0.1334375
0.798,0.3240625,0.1321875
0.799,0.323125,0.1309375
0.8,0.321875,0.13
0.801,0.320625,0.12875
0.802,0.3196875,0.1275
0.803,0.3184375,0.1265625
0.804,0.3175,0.1253125
0.805,0.3165625,0.124375
0.806,0.3153125,0.1234375
0.807,0.3146875,0.1221875
0.808,0.3134375,0.12125
0.809,0.3121875,0.1203125
0.81,0.31125,0.119375
0.811,0.31,0.1184375
0.812,0.30875,0.1178125
0.813,0.3075,0.1171875
0.814,0.3059375,0.11625
0.815,0.3046875,0.1153125
0.816,0.303125,0.115
0.817,0.30125,0.1140625
0.818,0.2996875,0.1134375
0.819,0.2975,0.113125
0.82,0.2959375,0.1121875
0.821,0.29375,0.1115625
0.822,0.2915625,0.11125
0.823,0.2890625,0.1103125
0.824,0.2865625,0.1096875
0.825,0.2840625,0.10875
0.826,0.28125,0.1078125
0.827,0.278125,0.1071875
0.828,0.2746875,0.10625
0.829,0.2715625,0.1053125
0.83,0.2678125,0.104375
0.831,0.2640625,0.1034375
0.832,0.26,0.1025
0.833,0.255625,0.1015625
0.834,0.25125,0.100625
0.835,0.2465625,0.0996875
0.836,0.2415625,0.0984375
0.837,0.2365625,0.0975
0.838,0.2315625,0.0965625
0.839,0.2259375,0.0953125
0.84,0.22,0.094375
0.841,0.2146875,0.093125
0.842,0.20875,0.0915625
0.843,0.2028125,0.0903125
0.844,0.1965625,0.0890625
0.845,0.19,0.0875
0.846,0.18375,0.08625
0.847,0.176875,0.084375
0.848,0.1696875,0.0828125
0.849,0.163125,0.08125
0.85,0.1559375,0.079375
0.851,0.1490625,0.0778125
0.852,0.141875,0.0759375
0.853,0.134375,0.074375
0.854,0.126875,0.0728125
0.855,0.119375,0.070625
0.856,0.111875,0.0690625
0.857,0.104375,0.0675
0.858,0.0965625,0.0653125
0.859,0.0890625,0.06375
0.86,0.0815625,0.0615625
0.861,0.0734375,0.0596875
0.862,0.0659375,0.0578125
0.863,0.058125,0.055625
0.864,0.050625,0.0534375
0.865,0.0425,0.05125
0.866,0.035,0.0490625
0.867,0.0271875,0.046875
0.868,0.019375,0.044375
0.869,0.0115625,0.0421875
0.87,0.0040625,0.0396875
0.871,-0.0034375,0.0375
0.872,-0.01125,0.035
0.873,-0.01875,0.0328125
0.874,-0.02625,0.0303125
0.875,-0.03375,0.0278125
0.876,-0.04125,0.025625
0.877,-0.04875,0.023125
0.878,-0.0559375,0.0209375
0.879,-0.063125,0.0184375
0.88,-0.07,0.0159375
0.881,-0.0771875,0.01375
0.882,-0.0840625,0.01125
0.883,-0.0909375,0.0090625
0.884,-0.0978125,0.0065625
0.885,-0.104375,0.0040625
0.886,-0.1109375,0.0015625
0.887,-0.1175,-0.0009375
0.888,-0.12375,-0.003125
0.889,-0.1296875,-0.005625
0.89,-0.1359375,-0.008125
0.891,-0.1421875,-0.0103125
0.892,-0.148125,-0.0128125
0.893,-0.15375,-0.015
0.894,-0.1596875,-0.0171875
0.895,-0.1653125,-0.0190625
0.896,-0.170625,-0.02125
0.897,-0.1759375,-0.0234375
0.898,-0.1809375,-0.0253125
0.899,-0.1859375,-0.0275
0.9,-0.1909375,-0.0290625
0.901,-0.195625,-0.0309375
0.902,-0.2,-0.033125
0.903,-0.204375,-0.035
0.904,-0.2084375,-0.036875
0.905,-0.2125,-0.03875
0.906,-0.21625,-0.0403125
0.907,-0.22,-0.0421875
0.908,-0.22375,-0.044375
0.909,-0.226875,-0.0459375
0.91,-0.23,-0.0478125
0.911,-0.233125,-0.049375
0.912,-0.2359375,-0.05125
0.913,-0.2384375,-0.0528125
0.914,-0.2409375,-0.0540625
0.915,-0.2434375,-0.055625
0.916,-0.2453125,-0.0571875
0.917,-0.2475,-0.0584375
0.918,-0.2490625,-0.0596875
0.919,-0.2509375,-0.06125
0.92,-0.2521875,-0.0625
0.921,-0.2534375,-0.06375
0.922,-0.2546875,-0.065
0.923,-0.2553125,-0.06625
0.924,-0.2559375,-0.0675
0.925,-0.256875,-0.0684375
0.926,-0.2571875,-0.0696875
0.927,-0.2575,-0.0709375
0.928,-0.2578125,-0.071875
0.929,-0.2578125,-0.0728125
0.93,-0.2578125,-0.0740625
0.931,-0.2578125,-0.075
0.932,-0.2575,-0.0759375
0.933,-0.2571875,-0.076875
0.934,-0.2565625,-0.0778125
0.935,-0.25625,-0.0784375
0.936,-0.2559375,-0.079375
0.937,-0.2553125,-0.0796875
0.938,-0.254375,-0.080625
0.939,-0.2534375,-0.0809375
0.94,-0.2528125,-0.081875
0.941,-0.2521875,-0.0821875
0.942,-0.2509375,-0.0828125
0.943,-0.2503125,-0.0834375
0.944,-0.2490625,-0.08375
0.945,-0.2484375,-0.0840625
0.946,-0.2471875,-0.0846875
0.947,-0.24625,-0.0853125
0.948,-0.2453125,-0.0859375
0.949,-0.2440625,-0.08625
0.95,-0.243125,-0.0865625
0.951,-0.241875,-0.0871875
0.952,-0.2409375,-0.0875
0.953,-0.24,-0.0878125
0.954,-0.23875,-0.088125
0.955,-0.2378125,-0.088125
0.956,-0.236875,-0.08875
0.957,-0.2359375,-0.08875
0.958,-0.2346875,-0.08875
0.959,-0.23375,-0.0890625
0.96,-0.2325,-0.089375
0.961,-0.23125,-0.089375
0.962,-0.2303125,-0.0896875
0.963,-0.229375,-0.0896875
0.964,-0.228125,-0.09
0.965,-0.2271875,-0.0903125
0.966,-0.22625,-0.0903125
0.967,-0.225,-0.0903125
0.968,-0.224375,-0.090625
0.969,-0.223125,-0.0909375
0.97,-0.2221875,-0.0909375
0.971,-0.22125,-0.09125
0.972,-0.2203125,-0.09125
0.973,-0.219375,-0.09125
0.974,-0.2184375,-0.0915625
0.975,-0.2175,-0.0915625
0.976,-0.2165625,-0.0915625
0.977,-0.215625,-0.0915625
0.978,-0.2146875,-0.0915625
0.979,-0.2140625,-0.0915625
0.98,-0.213125,-0.091875
0.981,-0.2121875,-0.091875
0.982,-0.21125,-0.091875
0.983,-0.210625,-0.091875
0.984,-0.2096875,-0.0921875
0.985,-0.20875,-0.0921875
0.986,-0.208125,-0.0925
0.987,-0.2071875,-0.0928125
0.988,-0.2065625,-0.0928125
0.989,-0.205625,-0.093125
0.99,-0.2046875,-0.093125
0.991,-0.2040625,-0.0934375
0.992,-0.203125,-0.09375
0.993,-0.2028125,-0.09375
0.994,-0.2021875,-0.0940625
0.995,-0.20125,-0.0940625
0.996,-0.200625,-0.094375
0.997,-0.2,-0.094375
0.998,-0.1990625,-0.094375
0.999,-0.19875,-0.0946875
1,-0.1978125,-0.0946875
1.001,-0.1975,-0.095
1.002,-0.1965625,-0.095
1.003,-0.1959375,-0.095
1.004,-0.1953125,-0.0953125
1.005,-0.194375,-0.095625
1.006,-0.1940625,-0.095625
1.007,-0.193125,-0.0959375
1.008,-0.1928125,-0.09625
1.009,-0.1921875,-0.09625
1.01,-0.19125,-0.0965625
1.011,-0.1909375,-0.096875
1.012,-0.19,-0.096875
1.013,-0.189375,-0.096875
1.014,-0.18875,-0.0971875
1.015,-0.188125,-0.0971875
1.016,-0.1875,-0.0971875
1.017,-0.1871875,-0.0971875
1.018,-0.18625,-0.0971875
1.019,-0.1859375,-0.0971875
1.02,-0.185,-0.0971875
1.021,-0.1846875,-0.0971875
1.022,-0.18375,-0.0971875
1.023,-0.1834375,-0.0971875
1.024,-0.1828125,-0.0971875
1.025,-0.1825,-0.0971875
1.026,-0.1815625,-0.0971875
1.027,-0.18125,-0.0971875
1.028,-0.180625,-0.0975
1.029,-0.18,-0.0975
1.03,-0.1796875,-0.0975
1.031,-0.179375,-0.0975
1.032,-0.17875,-0.0971875
1.033,-0.1784375,-0.0971875
1.034,-0.1778125,-0.0971875
1.035,-0.1778125,-0.0971875
1.036,-0.1771875,-0.0971875
1.037,-0.176875,-0.0971875
1.038,-0.176875,-0.0971875
1.039,-0.17625,-0.0971875
1.04,-0.17625,-0.0971875
1.041,-0.1759375,-0.0975
1.042,-0.175625,-0.0975
1.043,-0.175625,-0.0975
1.044,-0.175625,-0.0975
1.045,-0.175625,-0.0978125
1.046,-0.1753125,-0.098125
1.047,-0.1753125,-0.098125
1.048,-0.175625,-0.09875
1.049,-0.175625,-0.0990625
1.05,-0.175625,-0.099375
1.051,-0.175625,-0.0996875
1.052,-0.175625,-0.1
1.053,-0.1759375,-0.100625
1.054,-0.1759375,-0.1009375
1.055,-0.17625,-0.1015625
1.056,-0.17625,-0.101875
1.057,-0.17625,-0.1025
1.058,-0.1765625,-0.1028125
1.059,-0.1765625,-0.103125
1.06,-0.176875,-0.10375
1.061,-0.176875,-0.1046875
1.062,-0.176875,-0.105
1.063,-0.176875,-0.105625
1.064,-0.176875,-0.10625
1.065,-0.176875,-0.106875
1.066,-0.176875,-0.1075
1.067,-0.176875,-0.1084375
1.068,-0.176875,-0.10875
1.069,-0.176875,-0.1096875
1.07,-0.176875,-0.11
1.071,-0.176875,-0.1109375
1.072,-0.1765625,-0.11125
1.073,-0.1765625,-0.1115625
1.074,-0.1765625,-0.1121875
1.075,-0.17625,-0.1128125
1.076,-0.1759375,-0.113125
1.077,-0.1759375,-0.1134375
1.078,-0.175625,-0.1140625
1.079,-0.1753125,-0.114375
1.08,-0.175,-0.1146875
1.081,-0.1746875,-0.115
1.082,-0.174375,-0.1153125
1.083,-0.17375,-0.115625
1.084,-0.1734375,-0.1159375
1.085,-0.173125,-0.11625
1.086,-0.1725,-0.1165625
1.087,-0.1721875,-0.1165625
1.088,-0.1715625,-0.116875
1.089,-0.17125,-0.1171875
1.09,-0.170625,-0.1175
1.091,-0.1703125,-0.1175
1.092,-0.17,-0.1178125
1.093,-0.169375,-0.1178125
1.094,-0.16875,-0.1178125
1.095,-0.1684375,-0.1178125
1.096,-0.1678125,-0.1178125
1.097,-0.1675,-0.1178125
1.098,-0.1671875,-0.1178125
1.099,-0.1665625,-0.1178125
1.1,-0.16625,-0.1178125
1.101,-0.1653125,-0.1175
1.102,-0.165,-0.1175
1.103,-0.1646875,-0.1175
1.104,-0.1640625,-0.1175
1.105,-0.1634375,-0.1175
1.106,-0.1628125,-0.1175
1.107,-0.1625,-0.1175
1.108,-0.1621875,-0.1175
1.109,-0.1615625,-0.1175
1.11,-0.1609375,-0.1175
1.111,-0.160625,-0.1175
1.112,-0.16,-0.1171875
1.113,-0.1596875,-0.1171875
1.114,-0.159375,-0.1171875
1.115,-0.15875,-0.116875
1.116,-0.1584375,-0.116875
1.117,-0.158125,-0.1165625
1.118,-0.1575,-0.11625
1.119,-0.1571875,-0.11625
1.12,-0.156875,-0.1159375
1.121,-0.15625,-0.115625
1.122,-0.1559375,-0.115625
1.123,-0.1553125,-0.1153125
1.124,-0.155,-0.1153125
1.125,-0.1546875,-0.1153125
1.126,-0.1540625,-0.115
1.127,-0.15375,-0.115
1.128,-0.153125,-0.1146875
1.129,-0.1528125,-0.1146875
1.13,-0.1521875,-0.1146875
1.131,-0.151875,-0.114375
1.132,-0.15125,-0.114375
1.133,-0.1509375,-0.1140625
1.134,-0.1503125,-0.11375
1.135,-0.15,-0.11375
1.136,-0.1496875,-0.1134375
1.137,-0.1490625,-0.1134375
1.138,-0.1484375,-0.113125
1.139,-0.148125,-0.1125
1.14,-0.1471875,-0.1125
1.141,-0.146875,-0.1121875
1.142,-0.1459375,-0.111875
1.143,-0.145625,-0.111875
1.144,-0.1446875,-0.11125
1.145,-0.144375,-0.11125
1.146,-0.14375,-0.1109375
1.147,-0.143125,-0.1109375
1.148,-0.1425,-0.110625
1.149,-0.141875,-0.1103125
1.15,-0.14125,-0.1103125
1.151,-0.140625,-0.11
1.152,-0.14,-0.1096875
1.153,-0.139375,-0.109375
1.154,-0.13875,-0.109375
1.155,-0.1378125,-0.1090625
1.156,-0.1375,-0.10875
1.157,-0.1365625,-0.1084375
1.158,-0.13625,-0.108125
1.159,-0.1353125,-0.1078125
1.16,-0.135,-0.1075
1.161,-0.1340625,-0.1075
1.162,-0.1334375,-0.1071875
1.163,-0.1328125,-0.106875
1.164,-0.1321875,-0.1065625
1.165,-0.1315625,-0.10625
1.166,-0.1309375,-0.10625
1.167,-0.1303125,-0.10625
1.168,-0.13,-0.1059375
1.169,-0.1290625,-0.1059375
1.17,-0.1284375,-0.1059375
1.171,-0.128125,-0.105625
1.172,-0.1278125,-0.105625
1.173,-0.1271875,-0.105625
1.174,-0.1265625,-0.1053125
1.175,-0.12625,-0.1053125
1.176,-0.125625,-0.105
1.177,-0.1253125,-0.105
1.178,-0.1246875,-0.105
1.179,-0.124375,-0.1046875
1.18,-0.1240625,-0.1046875
1.181,-0.1234375,-0.1046875
1.182,-0.123125,-0.104375
1.183,-0.1228125,-0.104375
1.184,-0.1225,-0.104375
1.185,-0.121875,-0.104375
1.186,-0.1215625,-0.1040625
1.187,-0.12125,-0.1040625
1.188,-0.1209375,-0.1040625
1.189,-0.120625,-0.1040625
1.19,-0.1203125,-0.1040625
1.191,-0.12,-0.1040625
1.192,-0.12,-0.1040625
1.193,-0.119375,-0.1040625
1.194,-0.119375,-0.10375
1.195,-0.1190625,-0.10375
1.196,-0.11875,-0.1034375
1.197,-0.11875,-0.1034375
1.198,-0.118125,-0.1034375
1.199,-0.118125,-0.103125
1.2,-0.1178125,-0.103125
1.201,-0.1175,-0.1028125
1.202,-0.1175,-0.1028125
1.203,-0.116875,-0.1028125
1.204,-0.116875,-0.1025
1.205,-0.1165625,-0.1025
1.206,-0.11625,-0.1025
1.207,-0.11625,-0.1021875
1.208,-0.1159375,-0.1021875
1.209,-0.115625,-0.1021875
1.21,-0.115625,-0.1021875
1.211,-0.1153125,-0.1021875
1.212,-0.115,-0.101875
1.213,-0.115,-0.101875
1.214,-0.1146875,-0.101875
1.215,-0.114375,-0.1015625
1.216,-0.114375,-0.1015625
1.217,-0.114375,-0.10125
1.218,-0.1140625,-0.1009375
1.219,-0.1140625,-0.1009375
1.22,-0.11375,-0.100625
1.221,-0.11375,-0.1003125
1.222,-0.11375,-0.1003125
1.223,-0.1134375,-0.1
1.224,-0.1134375,-0.1
1.225,-0.1134375,-0.0996875
1.226,-0.113125,-0.0996875
1.227,-0.113125,-0.0996875
1.228,-0.113125,-0.099375
1.229,-0.113125,-0.099375
1.23,-0.113125,-0.0990625
1.231,-0.113125,-0.0990625
1.232,-0.113125,-0.0990625
1.233,-0.113125,-0.09875
1.234,-0.113125,-0.09875
1.235,-0.113125,-0.0984375
1.236,-0.1134375,-0.0984375
1.237,-0.1134375,-0.098125
1.238,-0.1134375,-0.098125
1.239,-0.1134375,-0.0978125
1.24,-0.1134375,-0.0978125
1.241,-0.1134375,-0.0975
1.242,-0.1134375,-0.0975
1.243,-0.1134375,-0.0975
1.244,-0.1134375,-0.0975
1.245,-0.1134375,-0.0975
1.246,-0.1134375,-0.0975
1.247,-0.1134375,-0.0975
1.248,-0.1134375,-0.0975
1.249,-0.1134375,-0.0978125
1.25,-0.113125,-0.0978125
1.251,-0.113125,-0.0978125
1.252,-0.113125,-0.098125
1.253,-0.113125,-0.098125
1.254,-0.113125,-0.0984375
1.255,-0.1128125,-0.0984375
1.256,-0.1128125,-0.0984375
1.257,-0.1125,-0.0984375
1.258,-0.1121875,-0.0984375
1.259,-0.1121875,-0.09875
1.26,-0.111875,-0.09875
1.261,-0.111875,-0.09875
1.262,-0.1115625,-0.09875
1.263,-0.1109375,-0.09875
1.264,-0.1109375,-0.0990625
1.265,-0.1103125,-0.0990625
1.266,-0.11,-0.0990625
1.267,-0.11,-0.099375
1.268,-0.109375,-0.099375
1.269,-0.109375,-0.099375
1.27,-0.10875,-0.099375
1.271,-0.1084375,-0.099375
1.272,-0.108125,-0.099375
1.273,-0.1078125,-0.099375
1.274,-0.1075,-0.099375
1.275,-0.1071875,-0.0990625
1.276,-0.106875,-0.0990625
1.277,-0.1065625,-0.0990625
1.278,-0.1059375,-0.09875
1.279,-0.1059375,-0.0984375
1.28,-0.1053125,-0.098125
1.281,-0.1053125,-0.098125
1.282,-0.105,-0.0978125
1.283,-0.104375,-0.0978125
1.284,-0.104375,-0.0975
1.285,-0.1040625,-0.0971875
1.286,-0.1034375,-0.096875
1.287,-0.1034375,-0.096875
1.288,-0.103125,-0.0965625
1.289,-0.1028125,-0.0965625
1.29,-0.1028125,-0.09625
1.291,-0.1025,-0.0959375
1.292,-0.1021875,-0.0959375
1.293,-0.1021875,-0.0953125
1.294,-0.101875,-0.0953125
1.295,-0.101875,-0.095
1.296,-0.1015625,-0.0946875
1.297,-0.1015625,-0.094375
1.298,-0.10125,-0.0940625
1.299,-0.10125,-0.09375
1.3,-0.10125,-0.0934375
1.301,-0.1009375,-0.093125
1.302,-0.1009375,-0.0928125
1.303,-0.100625,-0.0925
1.304,-0.1003125,-0.0921875
1.305,-0.1003125,-0.091875
1.306,-0.1,-0.0915625
1.307,-0.1,-0.0915625
1.308,-0.1,-0.0909375
1.309,-0.0996875,-0.090625
1.31,-0.0996875,-0.090625
1.311,-0.099375,-0.0903125
1.312,-0.099375,-0.09
1.313,-0.0990625,-0.0896875
1.314,-0.0990625,-0.089375
1.315,-0.0990625,-0.0890625
1.316,-0.09875,-0.08875
1.317,-0.09875,-0.088125
1.318,-0.0984375,-0.0878125
1.319,-0.098125,-0.0875
1.32,-0.098125,-0.0871875
1.321,-0.0978125,-0.0865625
1.322,-0.0978125,-0.08625
1.323,-0.0975,-0.0859375
1.324,-0.0971875,-0.085625
1.325,-0.0971875,-0.0853125
1.326,-0.0965625,-0.085
1.327,-0.0965625,-0.0846875
1.328,-0.09625,-0.084375
1.329,-0.0959375,-0.0840625
1.33,-0.0959375,-0.08375
1.331,-0.0953125,-0.0834375
1.332,-0.0953125,-0.083125
1.333,-0.0946875,-0.083125
1.334,-0.0946875,-0.0828125
1.335,-0.094375,-0.0821875
1.336,-0.0940625,-0.0821875
1.337,-0.09375,-0.0815625
1.338,-0.0934375,-0.08125
1.339,-0.093125,-0.08125
1.34,-0.0928125,-0.0809375
1.341,-0.0921875,-0.080625
1.342,-0.0921875,-0.0803125
1.343,-0.0915625,-0.0803125
1.344,-0.09125,-0.08
1.345,-0.0909375,-0.08
1.346,-0.090625,-0.08
1.347,-0.0903125,-0.0796875
1.348,-0.0896875,-0.0796875
1.349,-0.0896875,-0.0796875
1.35,-0.0890625,-0.0796875
1.351,-0.08875,-0.079375
1.352,-0.0884375,-0.079375
1.353,-0.088125,-0.079375
1.354,-0.0878125,-0.079375
1.355,-0.0875,-0.079375
1.356,-0.0871875,-0.0790625
1.357,-0.086875,-0.0790625
1.358,-0.0865625,-0.0790625
1.359,-0.08625,-0.07875
1.36,-0.0859375,-0.07875
1.361,-0.085625,-0.07875
1.362,-0.0853125,-0.0784375
1.363,-0.085,-0.0784375
1.364,-0.085,-0.0784375
1.365,-0.0846875,-0.0784375
1.366,-0.0840625,-0.0784375
1.367,-0.0840625,-0.0784375
1.368,-0.0834375,-0.0784375
1.369,-0.083125,-0.0784375
1.37,-0.083125,-0.0784375
1.371,-0.0828125,-0.0784375
1.372,-0.0825,-0.0784375
1.373,-0.0825,-0.0784375
1.374,-0.0821875,-0.0784375
1.375,-0.081875,-0.0784375
1.376,-0.0815625,-0.0784375
1.377,-0.0815625,-0.0784375
1.378,-0.08125,-0.078125
1.379,-0.08125,-0.078125
1.38,-0.0809375,-0.078125
1.381,-0.080625,-0.0778125
1.382,-0.080625,-0.0778125
1.383,-0.08,-0.0778125
1.384,-0.08,-0.0775
1.385,-0.0796875,-0.0775
1.386,-0.079375,-0.0775
1.387,-0.0790625,-0.0775
1.388,-0.07875,-0.0775
1.389,-0.07875,-0.0775
1.39,-0.0784375,-0.0775
1.391,-0.0778125,-0.0775
1.392,-0.0775,-0.0775
1.393,-0.0775,-0.0771875
1.394,-0.0771875,-0.0771875
1.395,-0.076875,-0.0771875
1.396,-0.0765625,-0.076875
1.397,-0.07625,-0.076875
1.398,-0.0759375,-0.0765625
1.399,-0.075625,-0.07625
1.4,-0.0753125,-0.07625
1.401,-0.075,-0.07625
1.402,-0.0746875,-0.0759375
1.403,-0.0740625,-0.075625
1.404,-0.0740625,-0.075625
1.405,-0.0734375,-0.0753125
1.406,-0.073125,-0.0753125
1.407,-0.0728125,-0.075
1.408,-0.0725,-0.075
1.409,-0.0721875,-0.0746875
1.41,-0.071875,-0.0746875
1.411,-0.07125,-0.0746875
1.412,-0.0709375,-0.074375
1.413,-0.070625,-0.074375
1.414,-0.0703125,-0.0740625
1.415,-0.07,-0.07375
1.416,-0.069375,-0.0734375
1.417,-0.069375,-0.073125
1.418,-0.06875,-0.073125
1.419,-0.06875,-0.0728125
1.42,-0.068125,-0.0728125
1.421,-0.068125,-0.0725
1.422,-0.0675,-0.071875
1.423,-0.0675,-0.071875
1.424,-0.066875,-0.0715625
1.425,-0.066875,-0.07125
1.426,-0.0665625,-0.07125
1.427,-0.0659375,-0.0709375
1.428,-0.0659375,-0.070625
1.429,-0.065625,-0.070625
1.43,-0.0653125,-0.0703125
1.431,-0.0653125,-0.0703125
1.432,-0.065,-0.07
1.433,-0.0646875,-0.0696875
1.434,-0.064375,-0.0696875
1.435,-0.064375,-0.0690625
1.436,-0.0640625,-0.0690625
1.437,-0.06375,-0.06875
1.438,-0.06375,-0.0684375
1.439,-0.0634375,-0.068125
1.44,-0.063125,-0.0678125
1.441,-0.063125,-0.0678125
1.442,-0.0628125,-0.0675
1.443,-0.0628125,-0.066875
1.444,-0.0625,-0.066875
1.445,-0.0621875,-0.0665625
1.446,-0.0621875,-0.06625
1.447,-0.061875,-0.06625
1.448,-0.0615625,-0.0659375
1.449,-0.06125,-0.065625
1.45,-0.06125,-0.0653125
1.451,-0.06125,-0.0653125
1.452,-0.0609375,-0.065
1.453,-0.060625,-0.0646875
1.454,-0.060625,-0.0646875
1.455,-0.0603125,-0.064375
1.456,-0.06,-0.0640625
1.457,-0.06,-0.06375
1.458,-0.059375,-0.06375
1.459,-0.059375,-0.0634375
1.46,-0.0590625,-0.063125
1.461,-0.05875,-0.063125
1.462,-0.05875,-0.0628125
1.463,-0.058125,-0.0628125
1.464,-0.058125,-0.0625
1.465,-0.0578125,-0.0625
1.466,-0.0575,-0.0625
1.467,-0.0571875,-0.0625
1.468,-0.056875,-0.0625
1.469,-0.056875,-0.0625
1.47,-0.05625,-0.0625
1.471,-0.0559375,-0.0625
1.472,-0.0559375,-0.0625
1.473,-0.055625,-0.0625
1.474,-0.0553125,-0.0625
1.475,-0.055,-0.0625
1.476,-0.055,-0.0625
1.477,-0.0546875,-0.0625
1.478,-0.0540625,-0.0628125
1.479,-0.05375,-0.0628125
1.48,-0.05375,-0.0628125
1.481,-0.0534375,-0.063125
1.482,-0.053125,-0.063125
1.483,-0.0528125,-0.063125
1.484,-0.0525,-0.0634375
1.485,-0.0525,-0.0634375
1.486,-0.051875,-0.06375
1.487,-0.0515625,-0.0640625
1.488,-0.0515625,-0.0640625
1.489,-0.05125,-0.0646875
1.49,-0.05125,-0.0646875
1.491,-0.050625,-0.065
1.492,-0.050625,-0.0653125
1.493,-0.050625,-0.0653125
1.494,-0.0503125,-0.0653125
1.495,-0.05,-0.065625
1.496,-0.0496875,-0.065625
1.497,-0.0496875,-0.065625
1.498,-0.0496875,-0.0659375
1.499,-0.049375,-0.0659375
1.5,-0.0490625,-0.0659375
1.501,-0.04875,-0.0659375
1.502,-0.04875,-0.0659375
1.503,-0.04875,-0.0659375
1.504,-0.0484375,-0.06625
1.505,-0.048125,-0.06625
1.506,-0.0478125,-0.06625
1.507,-0.0478125,-0.06625
1.508,-0.0475,-0.06625
1.509,-0.0475,-0.06625
1.51,-0.0471875,-0.06625
1.511,-0.046875,-0.06625
1.512,-0.046875,-0.06625
1.513,-0.0465625,-0.06625
1.514,-0.0465625,-0.06625
1.515,-0.04625,-0.06625
1.516,-0.04625,-0.06625
1.517,-0.0459375,-0.0659375
1.518,-0.0459375,-0.0659375
1.519,-0.0459375,-0.065625
1.52,-0.045625,-0.065625
1.521,-0.045625,-0.065625
1.522,-0.0453125,-0.0653125
1.523,-0.0453125,-0.0653125
1.524,-0.0453125,-0.0653125
1.525,-0.045,-0.0653125
1.526,-0.045,-0.0653125
1.527,-0.045,-0.0653125
1.528,-0.0446875,-0.0653125
1.529,-0.0446875,-0.0653125
1.53,-0.0446875,-0.0653125
1.531,-0.0446875,-0.0653125
1.532,-0.0446875,-0.065
1.533,-0.0446875,-0.065
1.534,-0.045,-0.065
1.535,-0.045,-0.065
1.536,-0.045,-0.0646875
1.537,-0.045,-0.0646875
1.538,-0.045,-0.0646875
1.539,-0.045,-0.064375
1.54,-0.045,-0.064375
1.541,-0.0453125,-0.064375
1.542,-0.0453125,-0.0640625
1.543,-0.0453125,-0.0640625
1.544,-0.0453125,-0.06375
1.545,-0.0453125,-0.06375
1.546,-0.045625,-0.06375
1.547,-0.045625,-0.0634375
1.548,-0.045625,-0.0634375
1.549,-0.045625,-0.0634375
1.55,-0.045625,-0.063125
1.551,-0.0459375,-0.063125
1.552,-0.0459375,-0.0628125
1.553,-0.0459375,-0.0625
1.554,-0.0459375,-0.0625
1.555,-0.0459375,-0.0621875
1.556,-0.0459375,-0.0621875
1.557,-0.0459375,-0.0615625
1.558,-0.0459375,-0.0615625
1.559,-0.0459375,-0.0609375
1.56,-0.0459375,-0.0609375
1.561,-0.0459375,-0.060625
1.562,-0.0459375,-0.06
1.563,-0.045625,-0.06
1.564,-0.045625,-0.0596875
1.565,-0.045625,-0.059375
1.566,-0.0453125,-0.059375
1.567,-0.0453125,-0.0590625
1.568,-0.045,-0.05875
1.569,-0.045,-0.0584375
1.57,-0.0446875,-0.0584375
1.571,-0.0446875,-0.058125
1.572,-0.044375,-0.0578125
1.573,-0.0440625,-0.0578125
1.574,-0.0440625,-0.0575
1.575,-0.04375,-0.0571875
1.576,-0.04375,-0.056875
1.577,-0.043125,-0.0565625
1.578,-0.043125,-0.0565625
1.579,-0.0428125,-0.0559375
1.58,-0.0425,-0.0559375
1.581,-0.0421875,-0.055625
1.582,-0.041875,-0.055625
1.583,-0.0415625,-0.0553125
1.584,-0.04125,-0.055
1.585,-0.0409375,-0.055
1.586,-0.0403125,-0.0546875
1.587,-0.0403125,-0.0546875
1.588,-0.0396875,-0.054375
1.589,-0.039375,-0.054375
1.59,-0.0390625,-0.0540625
1.591,-0.03875,-0.05375
1.592,-0.0384375,-0.05375
1.593,-0.0378125,-0.0534375
1.594,-0.0378125,-0.0534375
1.595,-0.0371875,-0.0528125
1.596,-0.0371875,-0.0528125
1.597,-0.0365625,-0.0525
1.598,-0.0365625,-0.0521875
1.599,-0.0359375,-0.051875
1.6,-0.0359375,-0.051875
1.601,-0.0353125,-0.05125
1.602,-0.035,-0.05125
1.603,-0.0346875,-0.0509375
1.604,-0.034375,-0.050625
1.605,-0.0340625,-0.050625
1.606,-0.03375,-0.0503125
1.607,-0.0334375,-0.0503125
1.608,-0.033125,-0.05
1.609,-0.0328125,-0.0496875
1.61,-0.0328125,-0.0496875
1.611,-0.0321875,-0.049375
1.612,-0.0321875,-0.0490625
1.613,-0.031875,-0.0490625
1.614,-0.0315625,-0.04875
1.615,-0.0315625,-0.04875
1.616,-0.03125,-0.0484375
1.617,-0.03125,-0.048125
1.618,-0.0309375,-0.048125
1.619,-0.030625,-0.0478125
1.62,-0.030625,-0.0475
1.621,-0.030625,-0.0475
1.622,-0.0303125,-0.0475
1.623,-0.03,-0.0471875
1.624,-0.0296875,-0.0471875
1.625,-0.0296875,-0.0471875
1.626,-0.029375,-0.0471875
1.627,-0.029375,-0.046875
1.628,-0.0290625,-0.046875
1.629,-0.0290625,-0.046875
1.63,-0.02875,-0.046875
1.631,-0.02875,-0.046875
1.632,-0.02875,-0.0465625
1.633,-0.0284375,-0.0465625
1.634,-0.0284375,-0.0465625
1.635,-0.028125,-0.04625
1.636,-0.028125,-0.04625
1.637,-0.028125,-0.0459375
1.638,-0.0278125,-0.045625
1.639,-0.0278125,-0.045625
1.64,-0.0275,-0.0453125
1.641,-0.0275,-0.0453125
1.642,-0.0271875,-0.0453125
1.643,-0.0271875,-0.045
1.644,-0.026875,-0.045
1.645,-0.0265625,-0.045
1.646,-0.0265625,-0.0446875
1.647,-0.02625,-0.0446875
1.648,-0.02625,-0.0446875
1.649,-0.0259375,-0.044375
1.65,-0.0259375,-0.044375
1.651,-0.025625,-0.044375
1.652,-0.025625,-0.0440625
1.653,-0.025625,-0.0440625
1.654,-0.0253125,-0.04375
1.655,-0.0253125,-0.0434375
1.656,-0.0253125,-0.043125
1.657,-0.025,-0.043125
1.658,-0.025,-0.0428125
1.659,-0.025,-0.0425
1.66,-0.0246875,-0.0425
1.661,-0.0246875,-0.041875
1.662,-0.0246875,-0.041875
1.663,-0.024375,-0.041875
1.664,-0.024375,-0.0415625
1.665,-0.024375,-0.04125
1.666,-0.0240625,-0.04125
1.667,-0.0240625,-0.04125
1.668,-0.0240625,-0.0409375
1.669,-0.0240625,-0.0409375
1.67,-0.0240625,-0.0409375
1.671,-0.02375,-0.040625
1.672,-0.02375,-0.040625
1.673,-0.02375,-0.0403125
1.674,-0.02375,-0.0403125
1.675,-0.02375,-0.0403125
1.676,-0.02375,-0.04
1.677,-0.02375,-0.04
1.678,-0.02375,-0.04
1.679,-0.02375,-0.0396875
1.68,-0.02375,-0.0396875
1.681,-0.02375,-0.0396875
1.682,-0.02375,-0.039375
1.683,-0.02375,-0.039375
1.684,-0.02375,-0.039375
1.685,-0.02375,-0.039375
1.686,-0.02375,-0.039375
1.687,-0.02375,-0.039375
1.688,-0.02375,-0.039375
1.689,-0.02375,-0.039375
1.69,-0.0234375,-0.039375
1.691,-0.0234375,-0.0390625
1.692,-0.0234375,-0.0390625
1.693,-0.0234375,-0.0390625
1.694,-0.02375,-0.03875
1.695,-0.02375,-0.03875
1.696,-0.02375,-0.03875
1.697,-0.02375,-0.0384375
1.698,-0.02375,-0.038125
1.699,-0.02375,-0.038125
1.7,-0.02375,-0.0378125
1.701,-0.02375,-0.0375
1.702,-0.02375,-0.0375
1.703,-0.02375,-0.0371875
1.704,-0.02375,-0.0371875
1.705,-0.02375,-0.036875
1.706,-0.0240625,-0.0365625
1.707,-0.0240625,-0.0365625
1.708,-0.0240625,-0.03625
1.709,-0.0240625,-0.0359375
1.71,-0.0240625,-0.035625
1.711,-0.024375,-0.035625
1.712,-0.024375,-0.0353125
1.713,-0.024375,-0.035
1.714,-0.024375,-0.035
1.715,-0.024375,-0.034375
1.716,-0.0246875,-0.0340625
1.717,-0.0246875,-0.0340625
1.718,-0.0246875,-0.03375
1.719,-0.0246875,-0.0334375
1.72,-0.025,-0.0334375
1.721,-0.025,-0.033125
1.722,-0.025,-0.0328125
1.723,-0.025,-0.0325
1.724,-0.0253125,-0.0325
1.725,-0.0253125,-0.0325
1.726,-0.0253125,-0.0321875
1.727,-0.0253125,-0.0321875
1.728,-0.0253125,-0.031875
1.729,-0.025625,-0.031875
1.73,-0.025625,-0.031875
1.731,-0.025625,-0.0315625
1.732,-0.0259375,-0.0315625
1.733,-0.0259375,-0.03125
1.734,-0.0259375,-0.03125
1.735,-0.02625,-0.0309375
1.736,-0.02625,-0.0309375
1.737,-0.02625,-0.030625
1.738,-0.0265625,-0.0303125
1.739,-0.0265625,-0.0303125
1.74,-0.0265625,-0.03
1.741,-0.026875,-0.03
1.742,-0.026875,-0.0296875
1.743,-0.026875,-0.0296875
1.744,-0.0271875,-0.0296875
1.745,-0.0271875,-0.029375
1.746,-0.0271875,-0.029375
1.747,-0.0271875,-0.029375
1.748,-0.0275,-0.029375
1.749,-0.0275,-0.0290625
1.75,-0.0275,-0.0290625
1.751,-0.0278125,-0.0290625
1.752,-0.0278125,-0.02875
1.753,-0.0278125,-0.02875
1.754,-0.028125,-0.02875
1.755,-0.028125,-0.0284375
1.756,-0.028125,-0.028125
1.757,-0.0284375,-0.0278125
1.758,-0.0284375,-0.0278125
1.759,-0.0284375,-0.0278125
1.76,-0.02875,-0.0275
1.761,-0.02875,-0.0271875
1.762,-0.02875,-0.026875
1.763,-0.02875,-0.026875
1.764,-0.0290625,-0.026875
1.765,-0.0290625,-0.0265625
1.766,-0.0290625,-0.0265625
1.767,-0.029375,-0.02625
1.768,-0.029375,-0.02625
1.769,-0.029375,-0.02625
1.77,-0.0296875,-0.0259375
1.771,-0.0296875,-0.0259375
1.772,-0.03,-0.025625
1.773,-0.03,-0.0253125
1.774,-0.0303125,-0.025
1.775,-0.0303125,-0.025
1.776,-0.030625,-0.0246875
1.777,-0.030625,-0.024375
1.778,-0.0309375,-0.024375
1.779,-0.0309375,-0.02375
1.78,-0.03125,-0.0234375
1.781,-0.03125,-0.023125
1.782,-0.0315625,-0.023125
1.783,-0.0315625,-0.0228125
1.784,-0.0315625,-0.0225
1.785,-0.031875,-0.0225
1.786,-0.031875,-0.0221875
1.787,-0.031875,-0.021875
1.788,-0.031875,-0.021875
1.789,-0.031875,-0.0215625
1.79,-0.031875,-0.0215625
1.791,-0.031875,-0.02125
1.792,-0.031875,-0.0209375
1.793,-0.031875,-0.0209375
1.794,-0.031875,-0.020625
1.795,-0.031875,-0.02
1.796,-0.031875,-0.02
1.797,-0.0315625,-0.0196875
1.798,-0.0315625,-0.019375
1.799,-0.0315625,-0.0190625
1.8,-0.03125,-0.01875
1.801,-0.03125,-0.0184375
1.802,-0.0309375,-0.018125
1.803,-0.030625,-0.0178125
1.804,-0.030625,-0.0175
1.805,-0.0303125,-0.0171875
1.806,-0.0303125,-0.016875
1.807,-0.0296875,-0.016875
1.808,-0.0296875,-0.01625
1.809,-0.029375,-0.0159375
1.81,-0.0290625,-0.0159375
1.811,-0.0290625,-0.0153125
1.812,-0.02875,-0.015
1.813,-0.0284375,-0.015
1.814,-0.0284375,-0.014375
1.815,-0.028125,-0.014375
1.816,-0.028125,-0.01375
1.817,-0.0278125,-0.0134375
1.818,-0.0275,-0.013125
1.819,-0.0275,-0.0128125
1.82,-0.0271875,-0.0125
1.821,-0.0271875,-0.0121875
1.822,-0.026875,-0.011875
1.823,-0.026875,-0.011875
1.824,-0.026875,-0.0115625
1.825,-0.0265625,-0.01125
1.826,-0.0265625,-0.0109375
1.827,-0.02625,-0.0109375
1.828,-0.02625,-0.0109375
1.829,-0.02625,-0.010625
1.83,-0.02625,-0.010625
1.831,-0.02625,-0.010625
1.832,-0.02625,-0.010625
1.833,-0.02625,-0.010625
1.834,-0.02625,-0.0103125
1.835,-0.02625,-0.0103125
1.836,-0.02625,-0.0103125
1.837,-0.02625,-0.0103125
1.838,-0.02625,-0.0103125
1.839,-0.02625,-0.0103125
1.84,-0.02625,-0.0103125
1.841,-0.02625,-0.010625
1.842,-0.02625,-0.010625
1.843,-0.02625,-0.010625
1.844,-0.02625,-0.0109375
1.845,-0.02625,-0.0109375
1.846,-0.02625,-0.0109375
1.847,-0.02625,-0.01125
1.848,-0.02625,-0.01125
1.849,-0.02625,-0.0115625
1.85,-0.02625,-0.011875
1.851,-0.02625,-0.011875
1.852,-0.02625,-0.0121875
1.853,-0.0265625,-0.0121875
1.854,-0.0265625,-0.0121875
1.855,-0.0265625,-0.0125
1.856,-0.0265625,-0.0125
1.857,-0.02625,-0.0125
1.858,-0.02625,-0.0125
1.859,-0.02625,-0.0125
1.86,-0.02625,-0.0128125
1.861,-0.02625,-0.0128125
1.862,-0.02625,-0.0128125
1.863,-0.0259375,-0.0128125
1.864,-0.0259375,-0.0128125
1.865,-0.0259375,-0.013125
1.866,-0.025625,-0.013125
1.867,-0.025625,-0.013125
1.868,-0.0253125,-0.013125
1.869,-0.025,-0.013125
1.87,-0.025,-0.013125
1.871,-0.0246875,-0.0128125
1.872,-0.024375,-0.0128125
1.873,-0.024375,-0.0128125
1.874,-0.02375,-0.0125
1.875,-0.0234375,-0.0125
1.876,-0.0234375,-0.0121875
1.877,-0.0228125,-0.011875
1.878,-0.0228125,-0.011875
1.879,-0.0221875,-0.0115625
1.88,-0.021875,-0.01125
1.881,-0.0215625,-0.0109375
1.882,-0.02125,-0.010625
1.883,-0.020625,-0.0103125
1.884,-0.0203125,-0.0103125
1.885,-0.02,-0.0096875
1.886,-0.0196875,-0.0096875
1.887,-0.019375,-0.009375
1.888,-0.01875,-0.0090625
1.889,-0.01875,-0.0090625
1.89,-0.018125,-0.0084375
1.891,-0.018125,-0.0084375
1.892,-0.0178125,-0.0078125
1.893,-0.0171875,-0.0078125
1.894,-0.016875,-0.0071875
1.895,-0.016875,-0.006875
1.896,-0.0165625,-0.0065625
1.897,-0.01625,-0.00625
1.898,-0.01625,-0.0059375
1.899,-0.0159375,-0.005625
1.9,-0.015625,-0.005
1.901,-0.015625,-0.005
1.902,-0.0153125,-0.004375
1.903,-0.0153125,-0.004375
1.904,-0.015,-0.0040625
1.905,-0.015,-0.00375
1.906,-0.0146875,-0.00375
1.907,-0.0146875,-0.003125
1.908,-0.0146875,-0.003125
1.909,-0.014375,-0.003125
1.91,-0.014375,-0.0028125
1.911,-0.014375,-0.0025
1.912,-0.0140625,-0.0025
1.913,-0.0140625,-0.0021875
1.914,-0.0140625,-0.001875
1.915,-0.0140625,-0.001875
1.916,-0.0140625,-0.0015625
1.917,-0.0140625,-0.0015625
1.918,-0.01375,-0.00125
1.919,-0.0140625,-0.0009375
1.92,-0.0140625,-0.0009375
1.921,-0.0140625,-0.000625
1.922,-0.0140625,-0.000625
1.923,-0.0140625,-0.000625
1.924,-0.0140625,-0.0003125
1.925,-0.014375,-0.0003125
1.926,-0.014375,0
1.927,-0.0146875,0
1.928,-0.015,0
1.929,-0.015,0.0003125
1.93,-0.015625,0.0003125
1.931,-0.015625,0.000625
1.932,-0.01625,0.0009375
1.933,-0.01625,0.0009375
1.934,-0.016875,0.00125
1.935,-0.016875,0.0015625
1.936,-0.0175,0.001875
1.937,-0.0178125,0.0021875
1.938,-0.018125,0.0025
1.939,-0.0184375,0.0028125
1.94,-0.0190625,0.003125
1.941,-0.0190625,0.00375
1.942,-0.019375,0.0040625
1.943,-0.02,0.004375
1.944,-0.0203125,0.0046875
1.945,-0.020625,0.0053125
1.946,-0.0209375,0.005625
1.947,-0.02125,0.0059375
1.948,-0.0215625,0.0065625
1.949,-0.021875,0.006875
1.95,-0.021875,0.0071875
1.951,-0.0225,0.0078125
1.952,-0.0225,0.008125
1.953,-0.0228125,0.00875
1.954,-0.0228125,0.0090625
1.955,-0.0228125,0.009375
1.956,-0.023125,0.01
1.957,-0.023125,0.0103125
1.958,-0.023125,0.0109375
1.959,-0.023125,0.01125
1.96,-0.023125,0.011875
1.961,-0.023125,0.0121875
1.962,-0.0228125,0.0125
1.963,-0.0228125,0.0128125
1.964,-0.0228125,0.0128125
1.965,-0.0225,0.013125
1.966,-0.0225,0.0134375
1.967,-0.0221875,0.01375
1.968,-0.0221875,0.01375
1.969,-0.0221875,0.01375
1.97,-0.021875,0.01375
1.971,-0.021875,0.0140625
1.972,-0.021875,0.0140625
1.973,-0.0215625,0.0140625
1.974,-0.0215625,0.0140625
1.975,-0.0215625,0.0140625
1.976,-0.0215625,0.0140625
1.977,-0.0215625,0.014375
1.978,-0.0215625,0.014375
1.979,-0.02125,0.0140625
1.98,-0.02125,0.0140625
1.981,-0.02125,0.0140625
1.982,-0.02125,0.0140625
1.983,-0.02125,0.0140625
1.984,-0.02125,0.0140625
1.985,-0.02125,0.0140625
1.986,-0.0209375,0.01375
1.987,-0.0209375,0.01375
1.988,-0.0209375,0.01375
1.989,-0.0209375,0.01375
1.99,-0.0209375,0.0134375
1.991,-0.020625,0.0134375
1.992,-0.020625,0.0134375
1.993,-0.020625,0.0134375
1.994,-0.020625,0.01375
1.995,-0.020625,0.01375
1.996,-0.0203125,0.01375
1.997,-0.0203125,0.01375
1.998,-0.0203125,0.01375
1.999,-0.02,0.0140625
2,-0.02,0.0140625
2.001,-0.02,0.0140625
2.002,-0.0196875,0.0140625
2.003,-0.0196875,0.014375
2.004,-0.019375,0.014375
2.005,-0.0190625,0.014375
2.006,-0.0190625,0.014375
2.007,-0.01875,0.014375
2.008,-0.01875,0.014375
2.009,-0.0184375,0.014375
2.01,-0.018125,0.0146875
2.011,-0.018125,0.0146875
2.012,-0.0178125,0.0146875
2.013,-0.0178125,0.0146875
2.014,-0.0175,0.0146875
2.015,-0.0175,0.015
2.016,-0.0171875,0.015
2.017,-0.0171875,0.015
2.018,-0.0171875,0.015
2.019,-0.016875,0.0153125
2.02,-0.016875,0.0153125
2.021,-0.0165625,0.0153125
2.022,-0.0165625,0.0153125
2.023,-0.0165625,0.0153125
2.024,-0.01625,0.0153125
2.025,-0.01625,0.0153125
2.026,-0.0159375,0.0153125
2.027,-0.0159375,0.0153125
2.028,-0.0159375,0.015
2.029,-0.0159375,0.015
2.03,-0.0159375,0.015
2.031,-0.0159375,0.015
2.032,-0.0159375,0.015
2.033,-0.0159375,0.015
2.034,-0.0159375,0.015
2.035,-0.0159375,0.015
2.036,-0.01625,0.015
2.037,-0.01625,0.015
2.038,-0.01625,0.015
2.039,-0.0165625,0.015
2.04,-0.0165625,0.0146875
2.041,-0.0165625,0.0146875
2.042,-0.016875,0.0146875
2.043,-0.016875,0.0146875
2.044,-0.016875,0.0146875
2.045,-0.0171875,0.0146875
2.046,-0.0171875,0.015
2.047,-0.0171875,0.015
2.048,-0.0175,0.015
2.049,-0.0175,0.015
2.05,-0.0175,0.015
2.051,-0.0178125,0.015
2.052,-0.0178125,0.015
2.053,-0.018125,0.0153125
2.054,-0.018125,0.0153125
2.055,-0.018125,0.0153125
2.056,-0.0184375,0.015625
2.057,-0.0184375,0.0159375
2.058,-0.01875,0.01625
2.059,-0.0190625,0.01625
2.06,-0.0190625,0.01625
2.061,-0.0190625,0.0165625
2.062,-0.019375,0.016875
2.063,-0.019375,0.016875
2.064,-0.0196875,0.0171875
2.065,-0.0196875,0.0171875
2.066,-0.0196875,0.0175
2.067,-0.02,0.0175
2.068,-0.02,0.0178125
2.069,-0.02,0.0178125
2.07,-0.0203125,0.018125
2.071,-0.0203125,0.018125
2.072,-0.0203125,0.0184375
2.073,-0.0203125,0.01875
2.074,-0.0203125,0.01875
2.075,-0.020625,0.01875
2.076,-0.020625,0.0190625
2.077,-0.020625,0.019375
2.078,-0.020625,0.019375
2.079,-0.020625,0.0196875
2.08,-0.020625,0.02
2.081,-0.0203125,0.02
2.082,-0.0203125,0.0203125
2.083,-0.0203125,0.0203125
2.084,-0.0203125,0.0203125
2.085,-0.0203125,0.020625
2.086,-0.0203125,0.020625
2.087,-0.0203125,0.020625
2.088,-0.0203125,0.0209375
2.089,-0.02,0.0209375
2.09,-0.02,0.0209375
2.091,-0.02,0.02125
2.092,-0.02,0.02125
2.093,-0.02,0.02125
2.094,-0.02,0.0215625
2.095,-0.02,0.0215625
2.096,-0.02,0.021875
2.097,-0.02,0.021875
2.098,-0.02,0.0221875
2.099,-0.02,0.0225
2.1,-0.02,0.0225
2.101,-0.02,0.0228125
2.102,-0.02,0.0228125
2.103,-0.02,0.0228125
2.104,-0.02,0.023125
2.105,-0.02,0.023125
2.106,-0.02,0.023125
2.107,-0.0203125,0.0234375
2.108,-0.0203125,0.0234375
2.109,-0.0203125,0.0234375
2.11,-0.0203125,0.02375
2.111,-0.0203125,0.02375
2.112,-0.020625,0.02375
2.113,-0.020625,0.0240625
2.114,-0.020625,0.0240625
2.115,-0.0209375,0.0240625
2.116,-0.0209375,0.024375
2.117,-0.0209375,0.024375
2.118,-0.02125,0.024375
2.119,-0.02125,0.0246875
2.12,-0.02125,0.0246875
2.121,-0.02125,0.0246875
2.122,-0.0215625,0.025
2.123,-0.0215625,0.025
2.124,-0.0215625,0.025
2.125,-0.021875,0.025
2.126,-0.021875,0.025
2.127,-0.021875,0.025
2.128,-0.0221875,0.025
2.129,-0.0221875,0.025
2.13,-0.0221875,0.025
2.131,-0.0225,0.025
2.132,-0.0225,0.025
2.133,-0.0228125,0.025
2.134,-0.0228125,0.025
2.135,-0.0228125,0.0253125
2.136,-0.023125,0.0253125
2.137,-0.023125,0.0253125
2.138,-0.0234375,0.0253125
2.139,-0.0234375,0.0253125
2.14,-0.0234375,0.025625
2.141,-0.02375,0.025625
2.142,-0.02375,0.025625
2.143,-0.0240625,0.025625
2.144,-0.0240625,0.025625
2.145,-0.0240625,0.0259375
2.146,-0.024375,0.0259375
2.147,-0.024375,0.0259375
2.148,-0.0246875,0.0259375
2.149,-0.0246875,0.0259375
2.15,-0.0246875,0.0259375
2.151,-0.025,0.02625
2.152,-0.025,0.02625
2.153,-0.0253125,0.0265625
2.154,-0.0253125,0.0265625
2.155,-0.025625,0.0265625
2.156,-0.025625,0.026875
2.157,-0.0259375,0.026875
2.158,-0.0259375,0.0271875
2.159,-0.02625,0.0275
2.16,-0.0265625,0.0275
2.161,-0.0265625,0.0278125
2.162,-0.026875,0.0278125
2.163,-0.026875,0.0278125
2.164,-0.0271875,0.028125
2.165,-0.0271875,0.028125
2.166,-0.0271875,0.0284375
2.167,-0.0275,0.02875
2.168,-0.0275,0.02875
2.169,-0.0278125,0.0290625
2.17,-0.0278125,0.029375
2.171,-0.0278125,0.029375
2.172,-0.028125,0.0296875
2.173,-0.028125,0.03
2.174,-0.0284375,0.03
2.175,-0.0284375,0.0303125
2.176,-0.0284375,0.030625
2.177,-0.02875,0.030625
2.178,-0.02875,0.03125
2.179,-0.0290625,0.03125
2.18,-0.0290625,0.0315625
2.181,-0.0290625,0.031875
2.182,-0.0290625,0.031875
2.183,-0.0290625,0.0321875
2.184,-0.029375,0.0321875
2.185,-0.029375,0.0321875
2.186,-0.029375,0.0325
2.187,-0.029375,0.0325
2.188,-0.0290625,0.0325
2.189,-0.0290625,0.0325
2.19,-0.0290625,0.0328125
2.191,-0.0290625,0.0328125
2.192,-0.0290625,0.0328125
2.193,-0.0290625,0.0328125
2.194,-0.0290625,0.0325
2.195,-0.0290625,0.0325
2.196,-0.0290625,0.0325
2.197,-0.0290625,0.0325
2.198,-0.0290625,0.0325
2.199,-0.0290625,0.0325
2.2,-0.0290625,0.0325
2.201,-0.0290625,0.0325
2.202,-0.0290625,0.0321875
2.203,-0.02875,0.0321875
2.204,-0.02875,0.031875
2.205,-0.02875,0.031875
2.206,-0.02875,0.0315625
2.207,-0.02875,0.03125
2.208,-0.0284375,0.03125
2.209,-0.0284375,0.0309375
2.21,-0.0284375,0.030625
2.211,-0.0284375,0.030625
2.212,-0.0284375,0.0303125
2.213,-0.0284375,0.03
2.214,-0.028125,0.03
2.215,-0.028125,0.0296875
2.216,-0.028125,0.029375
2.217,-0.028125,0.029375
2.218,-0.0278125,0.0290625
2.219,-0.0278125,0.0290625
2.22,-0.0278125,0.02875
2.221,-0.0275,0.02875
2.222,-0.0275,0.02875
2.223,-0.0271875,0.0284375
2.224,-0.0271875,0.0284375
2.225,-0.026875,0.028125
2.226,-0.0265625,0.028125
2.227,-0.02625,0.028125
2.228,-0.02625,0.028125
2.229,-0.0259375,0.028125
2.23,-0.025625,0.0278125
2.231,-0.025625,0.0278125
2.232,-0.0253125,0.028125
2.233,-0.025,0.028125
2.234,-0.0246875,0.028125
2.235,-0.024375,0.028125
2.236,-0.024375,0.028125
2.237,-0.0240625,0.0284375
2.238,-0.0234375,0.0284375
2.239,-0.0234375,0.0284375
2.24,-0.023125,0.02875
2.241,-0.0228125,0.02875
2.242,-0.0225,0.0290625
2.243,-0.0221875,0.029375
2.244,-0.021875,0.029375
2.245,-0.021875,0.0296875
2.246,-0.02125,0.03
2.247,-0.02125,0.03
2.248,-0.0209375,0.0303125
2.249,-0.020625,0.0303125
2.25,-0.020625,0.030625
2.251,-0.0203125,0.0309375
2.252,-0.02,0.03125
2.253,-0.02,0.03125
2.254,-0.0196875,0.0315625
2.255,-0.0196875,0.031875
2.256,-0.019375,0.031875
2.257,-0.019375,0.0321875
2.258,-0.0190625,0.0325
2.259,-0.0190625,0.0325
2.26,-0.0190625,0.0328125
2.261,-0.01875,0.033125
2.262,-0.01875,0.033125
2.263,-0.0184375,0.0334375
2.264,-0.0184375,0.0334375
2.265,-0.018125,0.0334375
2.266,-0.018125,0.03375
2.267,-0.018125,0.03375
2.268,-0.0178125,0.03375
2.269,-0.0178125,0.03375
2.27,-0.0175,0.0340625
2.271,-0.0175,0.0340625
2.272,-0.0175,0.0340625
2.273,-0.0171875,0.0340625
2.274,-0.0171875,0.0340625
2.275,-0.0171875,0.034375
2.276,-0.0171875,0.034375
2.277,-0.016875,0.034375
2.278,-0.016875,0.0346875
2.279,-0.016875,0.0346875
2.28,-0.0165625,0.0346875
2.281,-0.0165625,0.0346875
2.282,-0.0165625,0.0346875
2.283,-0.01625,0.035
2.284,-0.01625,0.035
2.285,-0.01625,0.035
2.286,-0.01625,0.035
2.287,-0.0159375,0.0346875
2.288,-0.0159375,0.0346875
2.289,-0.0159375,0.035
2.29,-0.0159375,0.035
2.291,-0.0159375,0.035
2.292,-0.0159375,0.035
2.293,-0.0159375,0.035
2.294,-0.0159375,0.035
2.295,-0.0159375,0.035
2.296,-0.01625,0.035
2.297,-0.01625,0.035
2.298,-0.01625,0.0353125
2.299,-0.01625,0.0353125
2.3,-0.01625,0.0353125
2.301,-0.0165625,0.0353125
2.302,-0.0165625,0.035625
2.303,-0.0165625,0.035625
2.304,-0.016875,0.035625
2.305,-0.016875,0.035625
2.306,-0.016875,0.035625
2.307,-0.0171875,0.0359375
2.308,-0.0171875,0.0359375
2.309,-0.0171875,0.0359375
2.31,-0.0175,0.03625
2.311,-0.0175,0.03625
2.312,-0.0178125,0.03625
2.313,-0.018125,0.0365625
2.314,-0.018125,0.0365625
2.315,-0.01875,0.036875
2.316,-0.01875,0.0371875
2.317,-0.0190625,0.0375
2.318,-0.019375,0.0375
2.319,-0.019375,0.0378125
2.32,-0.02,0.038125
2.321,-0.02,0.038125
2.322,-0.0203125,0.03875
2.323,-0.020625,0.03875
2.324,-0.020625,0.0390625
2.325,-0.02125,0.039375
2.326,-0.02125,0.039375
2.327,-0.0215625,0.04
2.328,-0.0215625,0.04
2.329,-0.0221875,0.04
2.33,-0.0221875,0.040625
2.331,-0.0225,0.040625
2.332,-0.0228125,0.040625
2.333,-0.0228125,0.04125
2.334,-0.0234375,0.04125
2.335,-0.0234375,0.04125
2.336,-0.02375,0.0415625
2.337,-0.0240625,0.041875
2.338,-0.0240625,0.0421875
2.339,-0.024375,0.0421875
2.34,-0.024375,0.0421875
2.341,-0.024375,0.0425
2.342,-0.0246875,0.0425
2.343,-0.0246875,0.0425
2.344,-0.0246875,0.0425
2.345,-0.0246875,0.0425
2.346,-0.0246875,0.0425
2.347,-0.0246875,0.0425
2.348,-0.0246875,0.0425
2.349,-0.0246875,0.0425
2.35,-0.0246875,0.0425
2.351,-0.0246875,0.0425
2.352,-0.0246875,0.0425
2.353,-0.024375,0.0425
2.354,-0.024375,0.0425
2.355,-0.024375,0.0425
2.356,-0.0240625,0.0425
2.357,-0.0240625,0.0425
2.358,-0.0240625,0.0425
2.359,-0.02375,0.0428125
2.36,-0.02375,0.0428125
2.361,-0.0234375,0.0428125
2.362,-0.023125,0.0428125
2.363,-0.0228125,0.0425
2.364,-0.0228125,0.0425
2.365,-0.0225,0.0425
2.366,-0.0221875,0.0425
2.367,-0.0221875,0.0425
2.368,-0.021875,0.0425
2.369,-0.0215625,0.0428125
2.37,-0.0215625,0.0428125
2.371,-0.02125,0.0428125
2.372,-0.0209375,0.0428125
2.373,-0.0209375,0.0428125
2.374,-0.020625,0.0428125
2.375,-0.0203125,0.0428125
2.376,-0.02,0.0428125
2.377,-0.02,0.043125
2.378,-0.02,0.043125
2.379,-0.0196875,0.043125
2.38,-0.019375,0.043125
2.381,-0.0190625,0.043125
2.382,-0.0190625,0.0434375
2.383,-0.0190625,0.0434375
2.384,-0.01875,0.0434375
2.385,-0.0184375,0.0434375
2.386,-0.018125,0.0434375
2.387,-0.018125,0.04375
2.388,-0.0178125,0.04375
2.389,-0.0178125,0.04375
2.39,-0.0178125,0.04375
2.391,-0.0175,0.04375
2.392,-0.0175,0.04375
2.393,-0.0175,0.04375
2.394,-0.0171875,0.04375
2.395,-0.0171875,0.0440625
2.396,-0.016875,0.0440625
2.397,-0.016875,0.0440625
2.398,-0.016875,0.0440625
2.399,-0.016875,0.0440625
2.4,-0.0165625,0.0440625
2.401,-0.0165625,0.0440625
2.402,-0.0165625,0.04375
2.403,-0.01625,0.04375
2.404,-0.01625,0.04375
2.405,-0.01625,0.04375
2.406,-0.0159375,0.0434375
2.407,-0.0159375,0.0434375
2.408,-0.0159375,0.043125
2.409,-0.015625,0.043125
2.41,-0.015625,0.043125
2.411,-0.015625,0.0428125
2.412,-0.0153125,0.0428125
2.413,-0.0153125,0.0425
2.414,-0.0153125,0.0425
2.415,-0.0153125,0.0425
2.416,-0.0153125,0.0421875
2.417,-0.015,0.0421875
2.418,-0.015,0.0421875
2.419,-0.015,0.041875
2.42,-0.015,0.041875
2.421,-0.015,0.041875
2.422,-0.0146875,0.041875
2.423,-0.0146875,0.0415625
2.424,-0.0146875,0.0415625
2.425,-0.0146875,0.0415625
2.426,-0.0146875,0.0415625
2.427,-0.0146875,0.0415625
2.428,-0.0146875,0.0415625
2.429,-0.014375,0.04125
2.43,-0.014375,0.04125
2.431,-0.0146875,0.04125
2.432,-0.0146875,0.04125
2.433,-0.0146875,0.04125
2.434,-0.0146875,0.0415625
2.435,-0.0146875,0.0415625
2.436,-0.0146875,0.0415625
2.437,-0.0146875,0.0415625
2.438,-0.0146875,0.0415625
2.439,-0.0146875,0.041875
2.44,-0.015,0.041875
2.441,-0.015,0.041875
2.442,-0.015,0.041875
2.443,-0.015,0.041875
2.444,-0.015,0.041875
2.445,-0.015,0.041875
2.446,-0.015,0.041875
2.447,-0.015,0.041875
2.448,-0.015,0.041875
2.449,-0.015,0.041875
2.45,-0.0153125,0.041875
2.451,-0.0153125,0.041875
2.452,-0.0153125,0.041875
2.453,-0.0153125,0.041875
2.454,-0.0153125,0.041875
2.455,-0.0153125,0.041875
2.456,-0.0153125,0.041875
2.457,-0.0153125,0.0415625
2.458,-0.015,0.0415625
2.459,-0.015,0.0415625
2.46,-0.015,0.0415625
2.461,-0.015,0.0415625
2.462,-0.015,0.0415625
2.463,-0.015,0.0415625
2.464,-0.015,0.0415625
2.465,-0.015,0.0415625
2.466,-0.015,0.04125
2.467,-0.015,0.04125
2.468,-0.0146875,0.04125
2.469,-0.0146875,0.04125
2.47,-0.0146875,0.04125
2.471,-0.0146875,0.0409375
2.472,-0.0146875,0.0409375
2.473,-0.0146875,0.0409375
2.474,-0.0146875,0.0409375
2.475,-0.014375,0.04125
2.476,-0.014375,0.04125
2.477,-0.014375,0.04125
2.478,-0.014375,0.04125
2.479,-0.014375,0.04125
2.48,-0.0140625,0.04125
2.481,-0.0140625,0.0415625
2.482,-0.0140625,0.0415625
2.483,-0.01375,0.0415625
2.484,-0.01375,0.041875
2.485,-0.01375,0.041875
2.486,-0.0134375,0.041875
2.487,-0.0134375,0.0421875
2.488,-0.013125,0.0421875
2.489,-0.013125,0.0425
2.49,-0.013125,0.0425
2.491,-0.0128125,0.0425
2.492,-0.0128125,0.0428125
2.493,-0.0125,0.0428125
2.494,-0.0121875,0.043125
2.495,-0.0121875,0.0434375
2.496,-0.011875,0.04375
2.497,-0.0115625,0.04375
2.498,-0.0115625,0.0440625
2.499,-0.01125,0.044375
2.5,-0.0109375,0.044375
2.501,-0.0109375,0.045
2.502,-0.010625,0.045
2.503,-0.0103125,0.0453125
2.504,-0.0103125,0.045625
2.505,-0.01,0.045625
2.506,-0.0096875,0.0459375
2.507,-0.0096875,0.04625
2.508,-0.009375,0.04625
2.509,-0.0090625,0.0465625
2.51,-0.00875,0.0465625
2.511,-0.00875,0.046875
2.512,-0.00875,0.046875
2.513,-0.0084375,0.0471875
2.514,-0.0084375,0.0471875
2.515,-0.0084375,0.0471875
2.516,-0.008125,0.0475
2.517,-0.008125,0.0475
2.518,-0.008125,0.0475
2.519,-0.008125,0.0478125
2.52,-0.0084375,0.0478125
2.521,-0.0084375,0.0478125
2.522,-0.0084375,0.0478125
2.523,-0.0084375,0.0478125
2.524,-0.00875,0.0478125
2.525,-0.00875,0.0478125
2.526,-0.00875,0.0478125
2.527,-0.0090625,0.0478125
2.528,-0.0090625,0.0475
2.529,-0.009375,0.0475
2.53,-0.0096875,0.0471875
2.531,-0.0096875,0.0471875
2.532,-0.0103125,0.0471875
2.533,-0.0103125,0.046875
2.534,-0.010625,0.046875
2.535,-0.0109375,0.0465625
2.536,-0.01125,0.0465625
2.537,-0.0115625,0.04625
2.538,-0.011875,0.04625
2.539,-0.011875,0.04625
2.54,-0.0125,0.0459375
2.541,-0.0125,0.0459375
2.542,-0.013125,0.045625
2.543,-0.013125,0.045625
2.544,-0.0134375,0.045625
2.545,-0.01375,0.0453125
2.546,-0.01375,0.0453125
2.547,-0.014375,0.045
2.548,-0.014375,0.045
2.549,-0.014375,0.0446875
2.55,-0.0146875,0.0446875
2.551,-0.015,0.0446875
2.552,-0.0153125,0.044375
2.553,-0.0153125,0.044375
2.554,-0.015625,0.044375
2.555,-0.015625,0.044375
2.556,-0.015625,0.044375
2.557,-0.0159375,0.0440625
2.558,-0.0159375,0.0440625
2.559,-0.0159375,0.0440625
2.56,-0.01625,0.0440625
2.561,-0.01625,0.0440625
2.562,-0.01625,0.04375
2.563,-0.01625,0.04375
2.564,-0.0165625,0.04375
2.565,-0.0165625,0.04375
2.566,-0.0165625,0.04375
2.567,-0.0165625,0.0434375
2.568,-0.0165625,0.0434375
2.569,-0.016875,0.043125
2.57,-0.016875,0.043125
2.571,-0.016875,0.043125
2.572,-0.016875,0.0428125
2.573,-0.016875,0.0428125
2.574,-0.016875,0.0425
2.575,-0.016875,0.0425
2.576,-0.016875,0.0425
2.577,-0.0171875,0.0421875
2.578,-0.0171875,0.0421875
2.579,-0.016875,0.041875
2.58,-0.016875,0.041875
2.581,-0.016875,0.041875
2.582,-0.016875,0.0415625
2.583,-0.016875,0.04125
2.584,-0.016875,0.04125
2.585,-0.016875,0.04125
2.586,-0.016875,0.0409375
2.587,-0.016875,0.0409375
2.588,-0.0165625,0.040625
2.589,-0.0165625,0.040625
2.59,-0.0165625,0.040625
2.591,-0.0165625,0.0403125
2.592,-0.0165625,0.0403125
2.593,-0.01625,0.0403125
2.594,-0.01625,0.0403125
2.595,-0.01625,0.04
2.596,-0.01625,0.04
2.597,-0.0159375,0.04
2.598,-0.0159375,0.04
2.599,-0.0159375,0.0403125
2.6,-0.015625,0.0403125
2.601,-0.015625,0.0403125
2.602,-0.0153125,0.0403125
2.603,-0.0153125,0.0403125
2.604,-0.0153125,0.0403125
2.605,-0.015,0.0403125
2.606,-0.015,0.0403125
2.607,-0.0146875,0.040625
2.608,-0.0146875,0.040625
2.609,-0.0146875,0.040625
2.61,-0.014375,0.040625
2.611,-0.014375,0.0409375
2.612,-0.014375,0.0409375
2.613,-0.0140625,0.0409375
2.614,-0.0140625,0.04125
2.615,-0.0140625,0.04125
2.616,-0.01375,0.0415625
2.617,-0.01375,0.0415625
2.618,-0.01375,0.041875
2.619,-0.01375,0.041875
2.62,-0.01375,0.0421875
2.621,-0.0134375,0.0425
2.622,-0.0134375,0.0425
2.623,-0.0134375,0.0428125
2.624,-0.0134375,0.0428125
2.625,-0.0134375,0.043125
2.626,-0.0134375,0.043125
2.627,-0.0134375,0.0434375
2.628,-0.0134375,0.0434375
2.629,-0.0134375,0.0434375
2.63,-0.0134375,0.04375
2.631,-0.0134375,0.04375
2.632,-0.0134375,0.0440625
2.633,-0.0134375,0.0440625
2.634,-0.0134375,0.044375
2.635,-0.0134375,0.044375
2.636,-0.0134375,0.044375
2.637,-0.0134375,0.0446875
2.638,-0.0134375,0.0446875
2.639,-0.01375,0.045
2.64,-0.01375,0.045
2.641,-0.01375,0.0453125
2.642,-0.01375,0.0453125
2.643,-0.0140625,0.045625
2.644,-0.0140625,0.045625
2.645,-0.0140625,0.045625
2.646,-0.014375,0.045625
2.647,-0.014375,0.045625
2.648,-0.014375,0.045625
2.649,-0.0146875,0.045625
2.65,-0.0146875,0.045625
2.651,-0.0146875,0.0459375
2.652,-0.0146875,0.0459375
2.653,-0.015,0.0459375
2.654,-0.015,0.0459375
2.655,-0.0153125,0.0459375
2.656,-0.0153125,0.04625
2.657,-0.0153125,0.04625
2.658,-0.015625,0.04625
2.659,-0.015625,0.0465625
2.66,-0.015625,0.0465625
2.661,-0.015625,0.0465625
2.662,-0.0159375,0.046875
2.663,-0.0159375,0.046875
2.664,-0.0159375,0.046875
2.665,-0.0159375,0.0471875
2.666,-0.0159375,0.0471875
2.667,-0.01625,0.0475
2.668,-0.01625,0.0475
2.669,-0.01625,0.0475
2.67,-0.01625,0.0478125
2.671,-0.01625,0.0478125
2.672,-0.01625,0.0478125
2.673,-0.01625,0.048125
2.674,-0.0165625,0.048125
2.675,-0.0165625,0.0484375
2.676,-0.0165625,0.04875
2.677,-0.0165625,0.04875
2.678,-0.0165625,0.0490625
2.679,-0.0165625,0.049375
2.68,-0.016875,0.049375
2.681,-0.016875,0.0496875
2.682,-0.016875,0.0496875
2.683,-0.016875,0.05
2.684,-0.016875,0.0503125
2.685,-0.0171875,0.0503125
2.686,-0.0171875,0.050625
2.687,-0.0171875,0.050625
2.688,-0.0171875,0.0509375
2.689,-0.0171875,0.0509375
2.69,-0.0175,0.0509375
2.691,-0.0175,0.05125
2.692,-0.0175,0.05125
2.693,-0.0178125,0.05125
2.694,-0.0178125,0.0515625
2.695,-0.018125,0.0515625
2.696,-0.018125,0.0515625
2.697,-0.018125,0.0515625
2.698,-0.0184375,0.051875
2.699,-0.0184375,0.051875
2.7,-0.01875,0.051875
2.701,-0.01875,0.0521875
2.702,-0.01875,0.0521875
2.703,-0.0190625,0.0521875
2.704,-0.0190625,0.0521875
2.705,-0.019375,0.0521875
2.706,-0.019375,0.0521875
2.707,-0.019375,0.0525
2.708,-0.0196875,0.0525
2.709,-0.0196875,0.0525
2.71,-0.0196875,0.0525
2.711,-0.02,0.0525
2.712,-0.02,0.0525
2.713,-0.02,0.0525
2.714,-0.0203125,0.0525
2.715,-0.0203125,0.0525
2.716,-0.0203125,0.0528125
2.717,-0.020625,0.0528125
2.718,-0.020625,0.053125
2.719,-0.020625,0.053125
2.72,-0.020625,0.053125
2.721,-0.020625,0.0534375
2.722,-0.020625,0.0534375
2.723,-0.0209375,0.05375
2.724,-0.020625,0.0540625
2.725,-0.020625,0.0540625
2.726,-0.020625,0.054375
2.727,-0.020625,0.054375
2.728,-0.020625,0.054375
2.729,-0.020625,0.0546875
2.73,-0.020625,0.055
2.731,-0.020625,0.0553125
2.732,-0.020625,0.0553125
2.733,-0.0203125,0.055625
2.734,-0.0203125,0.055625
2.735,-0.0203125,0.0559375
2.736,-0.0203125,0.0559375
2.737,-0.02,0.05625
2.738,-0.02,0.05625
2.739,-0.02,0.0565625
2.74,-0.0196875,0.0565625
2.741,-0.0196875,0.0565625
2.742,-0.019375,0.056875
2.743,-0.019375,0.056875
2.744,-0.0190625,0.056875
2.745,-0.0190625,0.0571875
2.746,-0.0190625,0.0571875
2.747,-0.01875,0.0571875
2.748,-0.01875,0.0571875
2.749,-0.0184375,0.0571875
2.75,-0.0184375,0.0571875
2.751,-0.018125,0.0571875
2.752,-0.018125,0.0571875
2.753,-0.018125,0.0571875
2.754,-0.0178125,0.0571875
2.755,-0.0178125,0.056875
2.756,-0.0175,0.056875
2.757,-0.0175,0.056875
2.758,-0.0175,0.056875
2.759,-0.0171875,0.0565625
2.76,-0.0171875,0.0565625
2.761,-0.016875,0.0565625
2.762,-0.016875,0.05625
2.763,-0.0165625,0.05625
2.764,-0.0165625,0.0559375
2.765,-0.01625,0.0559375
2.766,-0.0159375,0.0559375
2.767,-0.0159375,0.055625
2.768,-0.015625,0.055625
2.769,-0.015625,0.0553125
2.77,-0.0153125,0.0553125
2.771,-0.015,0.0553125
2.772,-0.015,0.055
2.773,-0.0146875,0.055
2.774,-0.0146875,0.055
2.775,-0.014375,0.055
2.776,-0.014375,0.055
2.777,-0.014375,0.055
2.778,-0.0140625,0.0546875
2.779,-0.01375,0.0546875
2.78,-0.01375,0.055
2.781,-0.0134375,0.055
2.782,-0.0134375,0.055
2.783,-0.013125,0.055
2.784,-0.013125,0.055
2.785,-0.0128125,0.055
2.786,-0.0128125,0.055
2.787,-0.0128125,0.055
2.788,-0.0125,0.055
2.789,-0.0125,0.055
2.79,-0.0125,0.0553125
2.791,-0.0121875,0.0553125
2.792,-0.0121875,0.0553125
2.793,-0.0121875,0.055625
2.794,-0.0121875,0.055625
2.795,-0.0121875,0.0559375
2.796,-0.011875,0.0559375
2.797,-0.011875,0.05625
2.798,-0.011875,0.05625
2.799,-0.011875,0.0565625
2.8,-0.011875,0.0565625
2.801,-0.011875,0.056875
2.802,-0.011875,0.056875
2.803,-0.011875,0.056875
2.804,-0.011875,0.0571875
2.805,-0.011875,0.0571875
2.806,-0.011875,0.0571875
2.807,-0.011875,0.0571875
2.808,-0.011875,0.0571875
2.809,-0.011875,0.0571875
2.81,-0.011875,0.0571875
2.811,-0.0121875,0.0571875
2.812,-0.0121875,0.0571875
2.813,-0.0121875,0.0571875
2.814,-0.0121875,0.0575
2.815,-0.0125,0.0575
2.816,-0.0125,0.0575
2.817,-0.0125,0.0575
2.818,-0.0128125,0.0575
2.819,-0.0128125,0.0575
2.82,-0.013125,0.0575
2.821,-0.013125,0.0575
2.822,-0.0134375,0.0575
2.823,-0.0134375,0.0575
2.824,-0.01375,0.0575
2.825,-0.01375,0.0575
2.826,-0.0140625,0.0575
2.827,-0.014375,0.0575
2.828,-0.014375,0.0575
2.829,-0.014375,0.0575
2.83,-0.0146875,0.0575
2.831,-0.015,0.0575
2.832,-0.015,0.0575
2.833,-0.0153125,0.0575
2.834,-0.015625,0.0575
2.835,-0.015625,0.0575
2.836,-0.0159375,0.0575
2.837,-0.01625,0.0575
2.838,-0.01625,0.0575
2.839,-0.0165625,0.0578125
2.84,-0.0165625,0.0578125
2.841,-0.0165625,0.0575
2.842,-0.016875,0.0575
2.843,-0.016875,0.0575
2.844,-0.016875,0.0575
2.845,-0.016875,0.0575
2.846,-0.0171875,0.0575
2.847,-0.0171875,0.0575
2.848,-0.0171875,0.0575
2.849,-0.0171875,0.0575
2.85,-0.0171875,0.0575
2.851,-0.0171875,0.0575
2.852,-0.0171875,0.0575
2.853,-0.0171875,0.0575
2.854,-0.0171875,0.0575
2.855,-0.0171875,0.0575
2.856,-0.0175,0.0575
2.857,-0.0175,0.0575
2.858,-0.0175,0.0578125
2.859,-0.0175,0.0578125
2.86,-0.0175,0.0578125
2.861,-0.0175,0.058125
2.862,-0.0175,0.058125
2.863,-0.0175,0.058125
2.864,-0.0178125,0.0584375
2.865,-0.0178125,0.0584375
2.866,-0.0178125,0.05875
2.867,-0.0178125,0.05875
2.868,-0.018125,0.0590625
2.869,-0.018125,0.0590625
2.87,-0.018125,0.059375
2.871,-0.0184375,0.0596875
2.872,-0.0184375,0.0596875
2.873,-0.0184375,0.06
2.874,-0.01875,0.06
2.875,-0.01875,0.0603125
2.876,-0.01875,0.060625
2.877,-0.0190625,0.060625
2.878,-0.0190625,0.0609375
2.879,-0.0190625,0.0609375
2.88,-0.0190625,0.06125
2.881,-0.0190625,0.0615625
2.882,-0.0190625,0.0615625
2.883,-0.019375,0.061875
2.884,-0.019375,0.061875
2.885,-0.019375,0.061875
2.886,-0.019375,0.0621875
2.887,-0.019375,0.0621875
2.888,-0.0190625,0.0621875
2.889,-0.0190625,0.0621875
2.89,-0.0190625,0.0621875
2.891,-0.0190625,0.0621875
2.892,-0.0190625,0.0621875
2.893,-0.0190625,0.0621875
2.894,-0.0190625,0.0621875
2.895,-0.01875,0.0621875
2.896,-0.01875,0.0621875
2.897,-0.01875,0.0621875
2.898,-0.0184375,0.0621875
2.899,-0.0184375,0.0621875
2.9,-0.018125,0.0621875
2.901,-0.018125,0.061875
2.902,-0.0178125,0.061875
2.903,-0.0175,0.061875
2.904,-0.0175,0.0615625
2.905,-0.0171875,0.0615625
2.906,-0.0171875,0.0615625
2.907,-0.016875,0.06125
2.908,-0.016875,0.06125
2.909,-0.0165625,0.0609375
2.91,-0.0165625,0.060625
2.911,-0.01625,0.060625
2.912,-0.01625,0.0603125
2.913,-0.01625,0.06
2.914,-0.0159375,0.06
2.915,-0.0159375,0.0596875
2.916,-0.015625,0.0596875
2.917,-0.015625,0.059375
2.918,-0.0153125,0.059375
2.919,-0.015,0.0590625
2.92,-0.015,0.0590625
2.921,-0.015,0.05875
2.922,-0.014375,0.05875
2.923,-0.014375,0.0584375
2.924,-0.0140625,0.0584375
2.925,-0.01375,0.058125
2.926,-0.01375,0.058125
2.927,-0.0134375,0.058125
2.928,-0.013125,0.0578125
2.929,-0.013125,0.0578125
2.93,-0.0125,0.0575
2.931,-0.0125,0.0575
2.932,-0.0121875,0.0575
2.933,-0.011875,0.0571875
2.934,-0.011875,0.0571875
2.935,-0.0115625,0.0571875
2.936,-0.01125,0.056875
2.937,-0.01125,0.056875
2.938,-0.0109375,0.056875
2.939,-0.010625,0.056875
2.94,-0.010625,0.0565625
2.941,-0.0103125,0.0565625
2.942,-0.01,0.0565625
2.943,-0.01,0.05625
2.944,-0.0096875,0.05625
2.945,-0.009375,0.05625
2.946,-0.009375,0.0559375
2.947,-0.0090625,0.0559375
2.948,-0.0090625,0.055625
2.949,-0.0090625,0.0553125
2.95,-0.00875,0.0553125
2.951,-0.00875,0.055
2.952,-0.00875,0.055
2.953,-0.0084375,0.055
2.954,-0.0084375,0.0546875
2.955,-0.0084375,0.0546875
2.956,-0.0084375,0.0546875
2.957,-0.0084375,0.054375
2.958,-0.0084375,0.054375
2.959,-0.0084375,0.054375
2.96,-0.0084375,0.054375
2.961,-0.0084375,0.0540625
2.962,-0.0084375,0.0540625
2.963,-0.0084375,0.0540625
2.964,-0.0084375,0.05375
2.965,-0.008125,0.05375
2.966,-0.008125,0.05375
2.967,-0.008125,0.0534375
2.968,-0.008125,0.0534375
2.969,-0.008125,0.0534375
2.97,-0.008125,0.053125
2.971,-0.008125,0.053125
2.972,-0.008125,0.053125
2.973,-0.008125,0.053125
2.974,-0.008125,0.053125
2.975,-0.008125,0.053125
2.976,-0.008125,0.053125
2.977,-0.008125,0.053125
2.978,-0.008125,0.053125
2.979,-0.008125,0.0534375
2.98,-0.008125,0.0534375
2.981,-0.008125,0.0534375
2.982,-0.008125,0.05375
2.983,-0.0084375,0.05375
2.984,-0.0084375,0.05375
2.985,-0.0084375,0.0540625
2.986,-0.0084375,0.0540625
2.987,-0.0084375,0.054375
2.988,-0.00875,0.054375
2.989,-0.00875,0.054375
2.99,-0.00875,0.054375
2.991,-0.0090625,0.0546875
2.992,-0.0090625,0.0546875
2.993,-0.009375,0.0546875
2.994,-0.009375,0.055
2.995,-0.0096875,0.055
2.996,-0.01,0.055
2.997,-0.01,0.0553125
2.998,-0.0103125,0.0553125
2.999,-0.010625,0.0553125
3,-0.010625,0.055625
3.001,-0.0109375,0.055625
3.002,-0.01125,0.0559375
3.003,-0.01125,0.0559375
3.004,-0.0115625,0.0559375
3.005,-0.011875,0.05625
3.006,-0.011875,0.05625
3.007,-0.0121875,0.05625
3.008,-0.0125,0.0565625
3.009,-0.0128125,0.0565625
3.01,-0.0128125,0.0565625
3.011,-0.0128125,0.056875
3.012,-0.013125,0.056875
3.013,-0.0134375,0.056875
3.014,-0.0134375,0.0571875
3.015,-0.0134375,0.0571875
3.016,-0.01375,0.0571875
3.017,-0.01375,0.0575
3.018,-0.01375,0.0575
3.019,-0.0140625,0.0578125
3.02,-0.0140625,0.0578125
3.021,-0.0140625,0.0578125
3.022,-0.0140625,0.058125
3.023,-0.01375,0.058125
3.024,-0.01375,0.058125
3.025,-0.01375,0.0584375
3.026,-0.01375,0.0584375
3.027,-0.01375,0.0584375
3.028,-0.01375,0.0584375
3.029,-0.0134375,0.0584375
3.03,-0.0134375,0.05875
3.031,-0.0134375,0.05875
3.032,-0.0134375,0.05875
3.033,-0.013125,0.0590625
3.034,-0.013125,0.0590625
3.035,-0.013125,0.0590625
3.036,-0.013125,0.059375
3.037,-0.013125,0.059375
3.038,-0.0128125,0.059375
3.039,-0.0128125,0.0596875
3.04,-0.0128125,0.0596875
3.041,-0.0128125,0.06
3.042,-0.0128125,0.06
3.043,-0.0125,0.06
3.044,-0.0125,0.06
3.045,-0.0125,0.06
3.046,-0.0125,0.0603125
3.047,-0.0125,0.0603125
3.048,-0.0125,0.0603125
3.049,-0.0128125,0.0603125
3.05,-0.0128125,0.0603125
3.051,-0.0128125,0.0603125
3.052,-0.0128125,0.0603125
3.053,-0.0128125,0.060625
3.054,-0.013125,0.060625
3.055,-0.013125,0.060625
3.056,-0.013125,0.060625
3.057,-0.0134375,0.060625
3.058,-0.0134375,0.060625
3.059,-0.0134375,0.060625
3.06,-0.01375,0.060625
3.061,-0.01375,0.060625
3.062,-0.01375,0.060625
3.063,-0.0140625,0.060625
3.064,-0.0140625,0.0603125
3.065,-0.0140625,0.0603125
3.066,-0.014375,0.06
3.067,-0.014375,0.06
3.068,-0.014375,0.0596875
3.069,-0.014375,0.059375
3.07,-0.014375,0.059375
3.071,-0.0146875,0.0590625
3.072,-0.0146875,0.05875
3.073,-0.0146875,0.0584375
3.074,-0.0146875,0.0584375
3.075,-0.0146875,0.058125
3.076,-0.0146875,0.0578125
3.077,-0.0146875,0.0578125
3.078,-0.0146875,0.0578125
3.079,-0.0146875,0.0575
3.08,-0.0146875,0.0575
3.081,-0.0146875,0.0571875
3.082,-0.0146875,0.056875
3.083,-0.0146875,0.056875
3.084,-0.0146875,0.0565625
3.085,-0.0146875,0.05625
3.086,-0.0146875,0.05625
3.087,-0.0146875,0.0559375
3.088,-0.0146875,0.055625
3.089,-0.0146875,0.055625
3.09,-0.0146875,0.0553125
3.091,-0.0146875,0.055
3.092,-0.0146875,0.0546875
3.093,-0.0146875,0.0546875
3.094,-0.0146875,0.0546875
3.095,-0.0146875,0.054375
3.096,-0.0146875,0.054375
3.097,-0.0146875,0.0540625
3.098,-0.0146875,0.0540625
3.099,-0.0146875,0.0540625
3.1,-0.0146875,0.0540625
3.101,-0.0146875,0.0540625
3.102,-0.0146875,0.05375
3.103,-0.0146875,0.05375
3.104,-0.0146875,0.05375
3.105,-0.015,0.05375
3.106,-0.015,0.0534375
3.107,-0.015,0.0534375
3.108,-0.015,0.0534375
3.109,-0.015,0.053125
3.11,-0.015,0.053125
3.111,-0.015,0.053125
3.112,-0.015,0.0528125
3.113,-0.015,0.0528125
3.114,-0.015,0.0528125
3.115,-0.015,0.0528125
3.116,-0.015,0.0528125
3.117,-0.015,0.053125
3.118,-0.015,0.053125
3.119,-0.015,0.053125
3.12,-0.015,0.0534375
3.121,-0.015,0.05375
3.122,-0.015,0.0540625
3.123,-0.015,0.0540625
3.124,-0.015,0.054375
3.125,-0.0153125,0.0546875
3.126,-0.0153125,0.055
3.127,-0.0153125,0.0553125
3.128,-0.0153125,0.055625
3.129,-0.0153125,0.0559375
3.13,-0.0153125,0.05625
3.131,-0.0153125,0.0565625
3.132,-0.015625,0.056875
3.133,-0.015625,0.0571875
3.134,-0.015625,0.0575
3.135,-0.015625,0.058125
3.136,-0.015625,0.0584375
3.137,-0.0159375,0.0590625
3.138,-0.0159375,0.059375
3.139,-0.0159375,0.0596875
3.14,-0.0159375,0.0603125
3.141,-0.0159375,0.0609375
3.142,-0.0159375,0.06125
3.143,-0.0159375,0.061875
3.144,-0.0159375,0.0625
3.145,-0.0159375,0.0628125
3.146,-0.0159375,0.06375
3.147,-0.0159375,0.0640625
3.148,-0.0159375,0.0646875
3.149,-0.0159375,0.065
3.15,-0.0159375,0.0659375
3.151,-0.0159375,0.06625
3.152,-0.0159375,0.066875
3.153,-0.0159375,0.0671875
3.154,-0.0159375,0.068125
3.155,-0.0159375,0.0684375
3.156,-0.0159375,0.069375
3.157,-0.0159375,0.0696875
3.158,-0.0159375,0.0703125
3.159,-0.0159375,0.0709375
3.16,-0.0159375,0.07125
3.161,-0.0159375,0.0721875
3.162,-0.0159375,0.0725
3.163,-0.015625,0.0734375
3.164,-0.015625,0.07375
3.165,-0.015625,0.074375
3.166,-0.015625,0.0746875
3.167,-0.015625,0.0753125
3.168,-0.0153125,0.075625
3.169,-0.0153125,0.0759375
3.17,-0.0153125,0.0765625
3.171,-0.015,0.076875
3.172,-0.015,0.076875
3.173,-0.015,0.0775
3.174,-0.015,0.0775
3.175,-0.0146875,0.0778125
3.176,-0.0146875,0.078125
3.177,-0.014375,0.078125
3.178,-0.014375,0.0784375
3.179,-0.014375,0.0784375
3.18,-0.0140625,0.0784375
3.181,-0.0140625,0.07875
3.182,-0.01375,0.07875
3.183,-0.01375,0.07875
3.184,-0.0134375,0.0784375
3.185,-0.0134375,0.0784375
3.186,-0.013125,0.0784375
3.187,-0.0128125,0.078125
3.188,-0.0128125,0.0778125
3.189,-0.0125,0.0775
3.19,-0.0125,0.0775
3.191,-0.0121875,0.076875
3.192,-0.011875,0.076875
3.193,-0.011875,0.0765625
3.194,-0.0115625,0.0759375
3.195,-0.01125,0.0759375
3.196,-0.01125,0.075625
3.197,-0.01125,0.075
3.198,-0.0109375,0.075
3.199,-0.010625,0.0746875
3.2,-0.010625,0.074375
3.201,-0.0103125,0.0740625
3.202,-0.0103125,0.0740625
3.203,-0.01,0.0734375
3.204,-0.0096875,0.0734375
3.205,-0.0096875,0.073125
3.206,-0.0096875,0.0728125
3.207,-0.009375,0.0728125
3.208,-0.009375,0.0725
3.209,-0.0090625,0.0721875
3.21,-0.0090625,0.071875
3.211,-0.0090625,0.071875
3.212,-0.00875,0.071875
3.213,-0.00875,0.0715625
3.214,-0.00875,0.0715625
3.215,-0.00875,0.0715625
3.216,-0.00875,0.0715625
3.217,-0.0084375,0.0715625
3.218,-0.0084375,0.0715625
3.219,-0.0084375,0.0715625
3.22,-0.008125,0.0715625
3.221,-0.008125,0.0715625
3.222,-0.008125,0.071875
3.223,-0.0078125,0.071875
3.224,-0.0078125,0.071875
3.225,-0.0075,0.0721875
3.226,-0.0075,0.0721875
3.227,-0.0071875,0.0721875
3.228,-0.0071875,0.0725
3.229,-0.0071875,0.0725
3.23,-0.006875,0.0725
3.231,-0.006875,0.0725
3.232,-0.0065625,0.0728125
3.233,-0.0065625,0.0728125
3.234,-0.00625,0.0728125
3.235,-0.00625,0.0728125
3.236,-0.00625,0.0728125
3.237,-0.0059375,0.073125
3.238,-0.0059375,0.073125
3.239,-0.005625,0.073125
3.24,-0.005625,0.073125
3.241,-0.005625,0.073125
3.242,-0.0053125,0.0734375
3.243,-0.0053125,0.073125
3.244,-0.005,0.073125
3.245,-0.005,0.073125
3.246,-0.0046875,0.073125
3.247,-0.004375,0.073125
3.248,-0.004375,0.0728125
3.249,-0.0040625,0.0728125
3.25,-0.0040625,0.0725
3.251,-0.0040625,0.0725
3.252,-0.00375,0.0725
3.253,-0.00375,0.0721875
3.254,-0.0034375,0.0721875
3.255,-0.0034375,0.071875
3.256,-0.0034375,0.071875
3.257,-0.003125,0.0715625
3.258,-0.003125,0.0715625
3.259,-0.003125,0.0715625
3.26,-0.003125,0.07125
3.261,-0.003125,0.07125
3.262,-0.0028125,0.0709375
3.263,-0.0028125,0.0709375
3.264,-0.0028125,0.0709375
3.265,-0.0028125,0.070625
3.266,-0.0028125,0.070625
3.267,-0.0028125,0.070625
3.268,-0.0028125,0.0703125
3.269,-0.0028125,0.0703125
3.27,-0.0028125,0.0703125
3.271,-0.0028125,0.07
3.272,-0.003125,0.07
3.273,-0.003125,0.07
3.274,-0.003125,0.07
3.275,-0.003125,0.07
3.276,-0.0034375,0.0696875
3.277,-0.0034375,0.0696875
3.278,-0.00375,0.0696875
3.279,-0.00375,0.0696875
3.28,-0.00375,0.0696875
3.281,-0.0040625,0.0696875
3.282,-0.0040625,0.0696875
3.283,-0.004375,0.0696875
3.284,-0.004375,0.0696875
3.285,-0.0046875,0.069375
3.286,-0.005,0.069375
3.287,-0.005,0.069375
3.288,-0.0053125,0.069375
3.289,-0.005625,0.069375
3.29,-0.005625,0.069375
3.291,-0.0059375,0.069375
3.292,-0.00625,0.069375
3.293,-0.00625,0.069375
3.294,-0.0065625,0.069375
3.295,-0.006875,0.0696875
3.296,-0.0071875,0.0696875
3.297,-0.0071875,0.0696875
3.298,-0.0078125,0.0696875
3.299,-0.008125,0.0696875
3.3,-0.008125,0.0696875
3.301,-0.0084375,0.07
3.302,-0.00875,0.07
3.303,-0.0090625,0.07
3.304,-0.0090625,0.0703125
3.305,-0.009375,0.0703125
3.306,-0.0096875,0.0703125
3.307,-0.01,0.0703125
3.308,-0.0103125,0.0703125
3.309,-0.0103125,0.0703125
3.31,-0.010625,0.0703125
3.311,-0.0109375,0.0703125
3.312,-0.01125,0.0703125
3.313,-0.01125,0.0703125
3.314,-0.01125,0.070625
3.315,-0.0115625,0.070625
3.316,-0.011875,0.070625
3.317,-0.011875,0.070625
3.318,-0.0121875,0.070625
3.319,-0.0121875,0.070625
3.32,-0.0121875,0.070625
3.321,-0.0125,0.0703125
3.322,-0.0125,0.0703125
3.323,-0.0128125,0.0703125
3.324,-0.0128125,0.0703125
3.325,-0.0128125,0.0703125
3.326,-0.0128125,0.0703125
3.327,-0.0128125,0.07
3.328,-0.0128125,0.07
3.329,-0.0128125,0.07
3.33,-0.0128125,0.0696875
3.331,-0.0128125,0.0696875
3.332,-0.0125,0.0696875
3.333,-0.0125,0.069375
3.334,-0.0125,0.069375
3.335,-0.0125,0.0690625
3.336,-0.0121875,0.0690625
3.337,-0.0121875,0.06875
3.338,-0.0121875,0.06875
3.339,-0.011875,0.06875
3.34,-0.011875,0.0684375
3.341,-0.0115625,0.0684375
3.342,-0.0115625,0.0684375
3.343,-0.0115625,0.0684375
3.344,-0.01125,0.0684375
3.345,-0.01125,0.068125
3.346,-0.0109375,0.068125
3.347,-0.0109375,0.0678125
3.348,-0.0109375,0.0678125
3.349,-0.010625,0.0678125
3.35,-0.010625,0.0675
3.351,-0.010625,0.0675
3.352,-0.010625,0.0675
3.353,-0.010625,0.0671875
3.354,-0.0109375,0.0671875
3.355,-0.0109375,0.066875
3.356,-0.0109375,0.066875
3.357,-0.0109375,0.066875
3.358,-0.0109375,0.0665625
3.359,-0.01125,0.0665625
3.36,-0.01125,0.06625
3.361,-0.01125,0.06625
3.362,-0.0115625,0.06625
3.363,-0.0115625,0.0659375
3.364,-0.011875,0.0659375
3.365,-0.011875,0.0659375
3.366,-0.0121875,0.065625
3.367,-0.0125,0.065625
3.368,-0.0128125,0.0653125
3.369,-0.0128125,0.065
3.37,-0.013125,0.0646875
3.371,-0.0134375,0.0646875
3.372,-0.0134375,0.064375
3.373,-0.0140625,0.0640625
3.374,-0.014375,0.06375
3.375,-0.014375,0.0634375
3.376,-0.0146875,0.063125
3.377,-0.015,0.0628125
3.378,-0.015,0.0625
3.379,-0.0153125,0.0621875
3.38,-0.015625,0.061875
3.381,-0.015625,0.0615625
3.382,-0.0159375,0.0609375
3.383,-0.0159375,0.060625
3.384,-0.0159375,0.0603125
3.385,-0.01625,0.06
3.386,-0.01625,0.059375
3.387,-0.01625,0.0590625
3.388,-0.01625,0.0584375
3.389,-0.0165625,0.0578125
3.39,-0.0165625,0.0575
3.391,-0.0165625,0.056875
3.392,-0.0165625,0.0565625
3.393,-0.0165625,0.05625
3.394,-0.0165625,0.055625
3.395,-0.0165625,0.055
3.396,-0.0165625,0.0546875
3.397,-0.0165625,0.0540625
3.398,-0.0165625,0.05375
3.399,-0.0165625,0.0534375
3.4,-0.01625,0.0528125
3.401,-0.01625,0.0525
3.402,-0.01625,0.0521875
3.403,-0.01625,0.051875
3.404,-0.01625,0.0515625
3.405,-0.01625,0.05125
3.406,-0.01625,0.0509375
3.407,-0.01625,0.050625
3.408,-0.01625,0.050625
3.409,-0.01625,0.05
3.41,-0.01625,0.05
3.411,-0.0159375,0.0496875
3.412,-0.01625,0.0496875
3.413,-0.01625,0.0496875
3.414,-0.01625,0.049375
3.415,-0.01625,0.049375
3.416,-0.01625,0.049375
3.417,-0.01625,0.049375
3.418,-0.01625,0.049375
3.419,-0.01625,0.049375
3.42,-0.01625,0.0496875
3.421,-0.0165625,0.0496875
3.422,-0.0165625,0.0496875
3.423,-0.0165625,0.05
3.424,-0.0165625,0.05
3.425,-0.016875,0.0503125
3.426,-0.016875,0.0503125
3.427,-0.016875,0.0503125
3.428,-0.016875,0.050625
3.429,-0.0171875,0.050625
3.43,-0.0171875,0.050625
3.431,-0.0171875,0.0509375
3.432,-0.0175,0.0509375
3.433,-0.0175,0.0509375
3.434,-0.0175,0.0509375
3.435,-0.0175,0.05125
3.436,-0.0178125,0.05125
3.437,-0.0178125,0.0515625
3.438,-0.0178125,0.0515625
3.439,-0.0178125,0.0515625
3.44,-0.0178125,0.051875
3.441,-0.0178125,0.051875
3.442,-0.0178125,0.051875
3.443,-0.0178125,0.0521875
3.444,-0.0178125,0.0521875
3.445,-0.0178125,0.0521875
3.446,-0.0178125,0.0525
3.447,-0.0178125,0.0525
3.448,-0.0178125,0.0525
3.449,-0.0178125,0.0525
3.45,-0.0178125,0.0525
3.451,-0.0178125,0.0525
3.452,-0.0178125,0.0521875
3.453,-0.0178125,0.0521875
3.454,-0.0178125,0.0521875
3.455,-0.0175,0.0521875
3.456,-0.0175,0.0521875
3.457,-0.0175,0.051875
3.458,-0.0175,0.051875
3.459,-0.0175,0.051875
3.46,-0.0175,0.051875
3.461,-0.0171875,0.051875
3.462,-0.0171875,0.0515625
3.463,-0.0171875,0.0515625
3.464,-0.016875,0.0515625
3.465,-0.016875,0.05125
3.466,-0.016875,0.05125
3.467,-0.0165625,0.0509375
3.468,-0.0165625,0.0509375
3.469,-0.01625,0.0509375
3.47,-0.01625,0.050625
3.471,-0.01625,0.050625
3.472,-0.0159375,0.050625
3.473,-0.015625,0.0503125
3.474,-0.015625,0.0503125
3.475,-0.0153125,0.0503125
3.476,-0.0153125,0.0503125
3.477,-0.0146875,0.05
3.478,-0.0146875,0.05
3.479,-0.014375,0.05
3.48,-0.0140625,0.05
3.481,-0.0140625,0.05
3.482,-0.0134375,0.05
3.483,-0.0134375,0.05
3.484,-0.0128125,0.05
3.485,-0.0128125,0.05
3.486,-0.0121875,0.05
3.487,-0.011875,0.05
3.488,-0.0115625,0.05
3.489,-0.01125,0.05
3.49,-0.0109375,0.05
3.491,-0.010625,0.05
3.492,-0.0103125,0.05
3.493,-0.01,0.05
3.494,-0.0096875,0.05
3.495,-0.009375,0.0496875
3.496,-0.0090625,0.0496875
3.497,-0.00875,0.0496875
3.498,-0.00875,0.0496875
3.499,-0.008125,0.0496875
3.5,-0.008125,0.0496875
3.501,-0.0078125,0.0496875
3.502,-0.0075,0.0496875
3.503,-0.0075,0.0496875
3.504,-0.0071875,0.0496875
3.505,-0.0071875,0.0496875
3.506,-0.0071875,0.0496875
3.507,-0.006875,0.049375
3.508,-0.006875,0.049375
3.509,-0.0065625,0.0490625
3.51,-0.0065625,0.0490625
3.511,-0.0065625,0.0490625
3.512,-0.0065625,0.04875
3.513,-0.006875,0.04875
3.514,-0.006875,0.04875
3.515,-0.006875,0.0484375
3.516,-0.006875,0.0484375
3.517,-0.006875,0.0484375
3.518,-0.0071875,0.048125
3.519,-0.0071875,0.048125
3.52,-0.0071875,0.048125
3.521,-0.0075,0.0478125
3.522,-0.0075,0.0478125
3.523,-0.0078125,0.0478125
3.524,-0.0078125,0.0475
3.525,-0.0078125,0.0475
3.526,-0.008125,0.0471875
3.527,-0.008125,0.0471875
3.528,-0.0084375,0.046875
3.529,-0.0084375,0.0465625
3.53,-0.00875,0.0465625
3.531,-0.00875,0.04625
3.532,-0.0090625,0.04625
3.533,-0.009375,0.0459375
3.534,-0.009375,0.045625
3.535,-0.0096875,0.045625
3.536,-0.01,0.0453125
3.537,-0.0103125,0.045
3.538,-0.0103125,0.045
3.539,-0.010625,0.0446875
3.54,-0.010625,0.044375
3.541,-0.0109375,0.044375
3.542,-0.01125,0.044375
3.543,-0.01125,0.0440625
3.544,-0.0115625,0.04375
3.545,-0.0115625,0.04375
3.546,-0.011875,0.0434375
3.547,-0.011875,0.0434375
3.548,-0.0121875,0.043125
3.549,-0.0121875,0.0428125
3.55,-0.0125,0.0428125
3.551,-0.0125,0.0425
3.552,-0.0125,0.0425
3.553,-0.0128125,0.0421875
3.554,-0.0128125,0.041875
3.555,-0.013125,0.041875
3.556,-0.013125,0.0415625
3.557,-0.013125,0.0415625
3.558,-0.0134375,0.04125
3.559,-0.0134375,0.04125
3.56,-0.0134375,0.0409375
3.561,-0.0134375,0.0409375
3.562,-0.0134375,0.0409375
3.563,-0.01375,0.040625
3.564,-0.01375,0.040625
3.565,-0.01375,0.0403125
3.566,-0.01375,0.0403125
3.567,-0.01375,0.0403125
3.568,-0.01375,0.04
3.569,-0.01375,0.04
3.57,-0.01375,0.04
3.571,-0.01375,0.0396875
3.572,-0.0140625,0.0396875
3.573,-0.0140625,0.0396875
3.574,-0.0140625,0.0396875
3.575,-0.0140625,0.0396875
3.576,-0.014375,0.039375
3.577,-0.014375,0.039375
3.578,-0.014375,0.039375
3.579,-0.0146875,0.0396875
3.58,-0.0146875,0.0396875
3.581,-0.015,0.0396875
3.582,-0.0153125,0.0396875
3.583,-0.0153125,0.0396875
3.584,-0.0153125,0.0396875
3.585,-0.015625,0.0396875
3.586,-0.0159375,0.04
3.587,-0.01625,0.04
3.588,-0.01625,0.0403125
3.589,-0.0165625,0.0403125
3.59,-0.0171875,0.0403125
3.591,-0.0175,0.040625
3.592,-0.0175,0.040625
3.593,-0.0178125,0.0409375
3.594,-0.018125,0.04125
3.595,-0.0184375,0.0415625
3.596,-0.0190625,0.0415625
3.597,-0.0190625,0.041875
3.598,-0.0196875,0.0421875
3.599,-0.0196875,0.0421875
3.6,-0.02,0.0425
3.601,-0.020625,0.0428125
3.602,-0.020625,0.043125
3.603,-0.0209375,0.043125
3.604,-0.02125,0.0434375
3.605,-0.02125,0.0434375
3.606,-0.021875,0.04375
3.607,-0.021875,0.04375
3.608,-0.0221875,0.04375
3.609,-0.0221875,0.0440625
3.61,-0.0221875,0.0440625
3.611,-0.0225,0.0440625
3.612,-0.0225,0.0440625
3.613,-0.0225,0.044375
3.614,-0.0225,0.044375
3.615,-0.0225,0.044375
3.616,-0.0225,0.044375
3.617,-0.0221875,0.044375
3.618,-0.0221875,0.044375
3.619,-0.021875,0.044375
3.62,-0.021875,0.044375
3.621,-0.021875,0.044375
3.622,-0.0215625,0.044375
3.623,-0.02125,0.0440625
3.624,-0.0209375,0.0440625
3.625,-0.0209375,0.0440625
3.626,-0.020625,0.04375
3.627,-0.0203125,0.04375
3.628,-0.0203125,0.0434375
3.629,-0.0196875,0.043125
3.63,-0.0196875,0.043125
3.631,-0.019375,0.043125
3.632,-0.01875,0.0425
3.633,-0.01875,0.0425
3.634,-0.0184375,0.0425
3.635,-0.018125,0.0421875
3.636,-0.0178125,0.041875
3.637,-0.0175,0.0415625
3.638,-0.0175,0.0415625
3.639,-0.016875,0.04125
3.64,-0.016875,0.04125
3.641,-0.0165625,0.04125
3.642,-0.01625,0.0409375
3.643,-0.01625,0.040625
3.644,-0.0159375,0.040625
3.645,-0.0159375,0.0403125
3.646,-0.015625,0.0403125
3.647,-0.0153125,0.04
3.648,-0.0153125,0.04
3.649,-0.015,0.0396875
3.65,-0.015,0.0396875
3.651,-0.0146875,0.0396875
3.652,-0.0146875,0.039375
3.653,-0.014375,0.039375
3.654,-0.014375,0.039375
3.655,-0.014375,0.0390625
3.656,-0.0140625,0.0390625
3.657,-0.0140625,0.0390625
3.658,-0.0140625,0.0390625
3.659,-0.01375,0.0390625
3.66,-0.01375,0.0390625
3.661,-0.01375,0.0390625
3.662,-0.0134375,0.0390625
3.663,-0.0134375,0.0390625
3.664,-0.0134375,0.0390625
3.665,-0.013125,0.0390625
3.666,-0.013125,0.0390625
3.667,-0.0128125,0.03875
3.668,-0.0128125,0.03875
3.669,-0.0128125,0.03875
3.67,-0.0125,0.03875
3.671,-0.0125,0.03875
3.672,-0.0121875,0.03875
3.673,-0.011875,0.03875
3.674,-0.011875,0.03875
3.675,-0.0115625,0.03875
3.676,-0.01125,0.03875
3.677,-0.0109375,0.03875
3.678,-0.0109375,0.03875
3.679,-0.010625,0.0384375
3.68,-0.010625,0.0384375
3.681,-0.0103125,0.0384375
3.682,-0.01,0.0384375
3.683,-0.01,0.0384375
3.684,-0.0096875,0.038125
3.685,-0.009375,0.038125
3.686,-0.0090625,0.038125
3.687,-0.0090625,0.038125
3.688,-0.00875,0.038125
3.689,-0.00875,0.038125
3.69,-0.0084375,0.038125
3.691,-0.008125,0.0378125
3.692,-0.008125,0.0378125
3.693,-0.0078125,0.0378125
3.694,-0.0078125,0.0378125
3.695,-0.0075,0.0378125
3.696,-0.0075,0.0378125
3.697,-0.0075,0.0378125
3.698,-0.0071875,0.0378125
3.699,-0.0071875,0.038125
3.7,-0.0071875,0.038125
3.701,-0.0071875,0.038125
3.702,-0.0071875,0.038125
3.703,-0.0071875,0.038125
3.704,-0.0071875,0.038125
3.705,-0.0071875,0.0384375
3.706,-0.0071875,0.0384375
3.707,-0.0071875,0.0384375
3.708,-0.0071875,0.03875
3.709,-0.0075,0.03875
3.71,-0.0075,0.03875
3.711,-0.0075,0.0390625
3.712,-0.0078125,0.0390625
3.713,-0.008125,0.039375
3.714,-0.008125,0.0396875
3.715,-0.0084375,0.0396875
3.716,-0.00875,0.04
3.717,-0.00875,0.0403125
3.718,-0.0090625,0.0403125
3.719,-0.009375,0.040625
3.72,-0.009375,0.0409375
3.721,-0.01,0.04125
3.722,-0.01,0.04125
3.723,-0.0103125,0.0415625
3.724,-0.010625,0.041875
3.725,-0.010625,0.041875
3.726,-0.01125,0.0421875
3.727,-0.01125,0.0425
3.728,-0.0115625,0.0428125
3.729,-0.011875,0.0428125
3.73,-0.0121875,0.0428125
3.731,-0.0121875,0.043125
3.732,-0.0128125,0.0434375
3.733,-0.0128125,0.0434375
3.734,-0.013125,0.04375
3.735,-0.0134375,0.0440625
3.736,-0.01375,0.0440625
3.737,-0.01375,0.0440625
3.738,-0.0140625,0.044375
3.739,-0.014375,0.0446875
3.74,-0.014375,0.0446875
3.741,-0.0146875,0.045
3.742,-0.0146875,0.045
3.743,-0.015,0.045
3.744,-0.015,0.0453125
3.745,-0.015,0.0453125
3.746,-0.0153125,0.0453125
3.747,-0.0153125,0.0453125
3.748,-0.0153125,0.0453125
3.749,-0.015625,0.0453125
3.75,-0.015625,0.0453125
3.751,-0.015625,0.0453125
3.752,-0.015625,0.0453125
3.753,-0.015625,0.0453125
3.754,-0.015625,0.045
3.755,-0.015625,0.045
3.756,-0.0153125,0.045
3.757,-0.0153125,0.0446875
3.758,-0.0153125,0.0446875
3.759,-0.0153125,0.044375
3.76,-0.0153125,0.044375
3.761,-0.0153125,0.044375
3.762,-0.015,0.0440625
3.763,-0.015,0.04375
3.764,-0.015,0.04375
3.765,-0.0146875,0.04375
3.766,-0.0146875,0.0434375
3.767,-0.014375,0.0434375
3.768,-0.014375,0.043125
3.769,-0.014375,0.0428125
3.77,-0.0140625,0.0428125
3.771,-0.0140625,0.0425
3.772,-0.0140625,0.0425
3.773,-0.01375,0.0421875
3.774,-0.01375,0.0421875
3.775,-0.01375,0.0421875
3.776,-0.01375,0.041875
3.777,-0.0134375,0.041875
3.778,-0.0134375,0.041875
3.779,-0.0134375,0.041875
3.78,-0.0134375,0.0415625
3.781,-0.0134375,0.0415625
3.782,-0.013125,0.0415625
3.783,-0.013125,0.0415625
3.784,-0.013125,0.0415625
3.785,-0.013125,0.0415625
3.786,-0.013125,0.041875
3.787,-0.013125,0.041875
3.788,-0.013125,0.041875
3.789,-0.0128125,0.041875
3.79,-0.0128125,0.041875
3.791,-0.0128125,0.041875
3.792,-0.0128125,0.041875
3.793,-0.0128125,0.041875
3.794,-0.0128125,0.041875
3.795,-0.0128125,0.041875
3.796,-0.0128125,0.041875
3.797,-0.0125,0.041875
3.798,-0.0125,0.0421875
3.799,-0.0125,0.0421875
3.8,-0.0125,0.0421875
3.801,-0.0121875,0.0421875
3.802,-0.0121875,0.0421875
3.803,-0.011875,0.0425
3.804,-0.011875,0.0425
3.805,-0.011875,0.0425
3.806,-0.0115625,0.0425
3.807,-0.0115625,0.0425
3.808,-0.01125,0.0421875
3.809,-0.01125,0.0421875
3.81,-0.0109375,0.0421875
3.811,-0.0109375,0.0421875
3.812,-0.0109375,0.0421875
3.813,-0.010625,0.0421875
3.814,-0.010625,0.0425
3.815,-0.0103125,0.0425
3.816,-0.0103125,0.0425
3.817,-0.01,0.0425
3.818,-0.01,0.0425
3.819,-0.01,0.0425
3.82,-0.0096875,0.0425
3.821,-0.0096875,0.0425
3.822,-0.0096875,0.0425
3.823,-0.009375,0.0425
3.824,-0.009375,0.0428125
3.825,-0.009375,0.0428125
3.826,-0.009375,0.0428125
3.827,-0.0090625,0.0428125
3.828,-0.0090625,0.0428125
3.829,-0.0090625,0.0428125
3.83,-0.0090625,0.0428125
3.831,-0.0090625,0.043125
3.832,-0.0090625,0.043125
3.833,-0.00875,0.043125
3.834,-0.00875,0.043125
3.835,-0.0090625,0.043125
3.836,-0.0090625,0.043125
3.837,-0.0090625,0.043125
3.838,-0.0090625,0.0434375
3.839,-0.0090625,0.0434375
3.84,-0.0090625,0.0434375
3.841,-0.0090625,0.04375
3.842,-0.0090625,0.04375
3.843,-0.0090625,0.04375
3.844,-0.0090625,0.0440625
3.845,-0.0090625,0.0440625
3.846,-0.009375,0.0440625
3.847,-0.009375,0.044375
3.848,-0.009375,0.044375
3.849,-0.009375,0.044375
3.85,-0.009375,0.0446875
3.851,-0.0096875,0.0446875
3.852,-0.0096875,0.0446875
3.853,-0.0096875,0.0446875
3.854,-0.0096875,0.0446875
3.855,-0.01,0.0446875
3.856,-0.01,0.0446875
3.857,-0.01,0.045
3.858,-0.01,0.045
3.859,-0.01,0.0446875
3.86,-0.0103125,0.0446875
3.861,-0.0103125,0.0446875
3.862,-0.0103125,0.0446875
3.863,-0.0103125,0.0446875
3.864,-0.0103125,0.0446875
3.865,-0.0103125,0.0446875
3.866,-0.010625,0.044375
3.867,-0.010625,0.044375
3.868,-0.010625,0.044375
3.869,-0.010625,0.0440625
3.87,-0.010625,0.0440625
3.871,-0.010625,0.0440625
3.872,-0.010625,0.04375
3.873,-0.010625,0.04375
3.874,-0.010625,0.0434375
3.875,-0.010625,0.0434375
3.876,-0.0109375,0.043125
3.877,-0.010625,0.0428125
3.878,-0.010625,0.0428125
3.879,-0.010625,0.0425
3.88,-0.010625,0.0425
3.881,-0.010625,0.0421875
3.882,-0.010625,0.041875
3.883,-0.010625,0.041875
3.884,-0.010625,0.0415625
3.885,-0.0103125,0.0415625
3.886,-0.0103125,0.04125
3.887,-0.0103125,0.04125
3.888,-0.0103125,0.0409375
3.889,-0.0103125,0.0409375
3.89,-0.0103125,0.040625
3.891,-0.01,0.040625
3.892,-0.01,0.040625
3.893,-0.01,0.0403125
3.894,-0.01,0.0403125
3.895,-0.01,0.0403125
3.896,-0.01,0.04
3.897,-0.01,0.04
3.898,-0.01,0.0396875
3.899,-0.01,0.0396875
3.9,-0.01,0.0396875
3.901,-0.01,0.0396875
3.902,-0.01,0.0396875
3.903,-0.01,0.039375
3.904,-0.01,0.039375
3.905,-0.01,0.039375
3.906,-0.01,0.039375
3.907,-0.01,0.039375
3.908,-0.01,0.0390625
3.909,-0.01,0.0390625
3.91,-0.01,0.0390625
3.911,-0.01,0.03875
3.912,-0.01,0.03875
3.913,-0.01,0.03875
3.914,-0.01,0.03875
3.915,-0.01,0.0384375
3.916,-0.01,0.0384375
3.917,-0.01,0.0384375
3.918,-0.0103125,0.0384375
3.919,-0.0103125,0.0384375
3.92,-0.0103125,0.0384375
3.921,-0.0103125,0.0384375
3.922,-0.0103125,0.038125
3.923,-0.0103125,0.038125
3.924,-0.0103125,0.038125
3.925,-0.0103125,0.038125
3.926,-0.0103125,0.038125
3.927,-0.0103125,0.038125
3.928,-0.0103125,0.038125
3.929,-0.0103125,0.038125
3.93,-0.0103125,0.038125
3.931,-0.0103125,0.038125
3.932,-0.0103125,0.0378125
3.933,-0.0103125,0.0378125
3.934,-0.0103125,0.0378125
3.935,-0.01,0.0378125
3.936,-0.01,0.0375
3.937,-0.01,0.0375
3.938,-0.01,0.0375
3.939,-0.0096875,0.0371875
3.94,-0.0096875,0.0371875
3.941,-0.0096875,0.0371875
3.942,-0.009375,0.0371875
3.943,-0.009375,0.036875
3.944,-0.009375,0.036875
3.945,-0.0090625,0.036875
3.946,-0.0090625,0.0365625
3.947,-0.0090625,0.0365625
3.948,-0.00875,0.0365625
3.949,-0.00875,0.0365625
3.95,-0.00875,0.03625
3.951,-0.0084375,0.03625
3.952,-0.0084375,0.03625
3.953,-0.0084375,0.03625
3.954,-0.008125,0.0359375
3.955,-0.008125,0.0359375
3.956,-0.008125,0.0359375
3.957,-0.0078125,0.0359375
3.958,-0.0078125,0.0359375
3.959,-0.0078125,0.0359375
3.96,-0.0078125,0.0359375
3.961,-0.0078125,0.035625
3.962,-0.0075,0.035625
3.963,-0.0075,0.035625
3.964,-0.0075,0.035625
3.965,-0.0075,0.035625
3.966,-0.0075,0.0353125
3.967,-0.0075,0.0353125
3.968,-0.0078125,0.0353125
3.969,-0.0078125,0.035
3.97,-0.0078125,0.035
3.971,-0.0078125,0.0346875
3.972,-0.0078125,0.0346875
3.973,-0.0078125,0.034375
3.974,-0.0078125,0.0340625
3.975,-0.008125,0.0340625
3.976,-0.008125,0.0340625
3.977,-0.008125,0.03375
3.978,-0.0084375,0.0334375
3.979,-0.0084375,0.033125
3.98,-0.0084375,0.033125
3.981,-0.00875,0.0328125
3.982,-0.00875,0.0325
3.983,-0.00875,0.0325
3.984,-0.0090625,0.031875
3.985,-0.0090625,0.031875
3.986,-0.0090625,0.0315625
3.987,-0.009375,0.03125
3.988,-0.009375,0.0309375
3.989,-0.009375,0.0309375
3.99,-0.009375,0.030625
3.991,-0.0096875,0.03
3.992,-0.0096875,0.03
3.993,-0.0096875,0.0296875
3.994,-0.0096875,0.0296875
3.995,-0.0096875,0.029375
3.996,-0.0096875,0.0290625
3.997,-0.0096875,0.0290625
3.998,-0.0096875,0.02875
3.999,-0.0096875,0.02875
4,-0.0096875,0.0284375
4.001,-0.0096875,0.0284375
4.002,-0.0096875,0.0284375
4.003,-0.0096875,0.0284375
4.004,-0.0096875,0.028125
4.005,-0.0096875,0.028125
4.006,-0.0096875,0.028125
4.007,-0.009375,0.028125
4.008,-0.009375,0.0284375
4.009,-0.009375,0.0284375
4.01,-0.0090625,0.0284375
4.011,-0.0090625,0.0284375
4.012,-0.0090625,0.0284375
4.013,-0.0090625,0.0284375
4.014,-0.0090625,0.0284375
4.015,-0.0090625,0.0284375
4.016,-0.0090625,0.02875
4.017,-0.0090625,0.02875
4.018,-0.0090625,0.02875
4.019,-0.0090625,0.0290625
4.02,-0.0090625,0.0290625
4.021,-0.0090625,0.0290625
4.022,-0.0090625,0.029375
4.023,-0.009375,0.029375
4.024,-0.009375,0.029375
4.025,-0.009375,0.0296875
4.026,-0.009375,0.0296875
4.027,-0.0096875,0.0296875
4.028,-0.0096875,0.0296875
4.029,-0.0096875,0.03
4.03,-0.01,0.03
4.031,-0.01,0.03
4.032,-0.0103125,0.03
4.033,-0.010625,0.03
4.034,-0.010625,0.03
4.035,-0.0109375,0.03
4.036,-0.01125,0.03
4.037,-0.01125,0.03
4.038,-0.01125,0.0296875
4.039,-0.0115625,0.0296875
4.04,-0.011875,0.0296875
4.041,-0.011875,0.0296875
4.042,-0.0121875,0.0296875
4.043,-0.0125,0.0296875
4.044,-0.0125,0.029375
4.045,-0.0128125,0.029375
4.046,-0.013125,0.029375
4.047,-0.013125,0.0290625
4.048,-0.0134375,0.0290625
4.049,-0.01375,0.0290625
4.05,-0.01375,0.02875
4.051,-0.0140625,0.02875
4.052,-0.014375,0.02875
4.053,-0.014375,0.0284375
4.054,-0.0146875,0.0284375
4.055,-0.015,0.028125
4.056,-0.0153125,0.028125
4.057,-0.015625,0.028125
4.058,-0.015625,0.0278125
4.059,-0.0159375,0.0278125
4.06,-0.01625,0.0278125
4.061,-0.01625,0.0278125
4.062,-0.0165625,0.0275
4.063,-0.016875,0.0275
4.064,-0.016875,0.0275
4.065,-0.0171875,0.0275
4.066,-0.0175,0.0275
4.067,-0.0175,0.0271875
4.068,-0.0178125,0.0271875
4.069,-0.0178125,0.0271875
4.07,-0.018125,0.0271875
4.071,-0.018125,0.0271875
4.072,-0.018125,0.0271875
4.073,-0.0184375,0.0271875
4.074,-0.0184375,0.0271875
4.075,-0.0184375,0.026875
4.076,-0.0184375,0.026875
4.077,-0.0184375,0.026875
4.078,-0.0184375,0.026875
4.079,-0.0184375,0.026875
4.08,-0.0184375,0.026875
4.081,-0.018125,0.0271875
4.082,-0.018125,0.0271875
4.083,-0.018125,0.0271875
4.084,-0.0178125,0.0271875
4.085,-0.0178125,0.0271875
4.086,-0.0175,0.0271875
4.087,-0.0171875,0.0271875
4.088,-0.0171875,0.0271875
4.089,-0.016875,0.0271875
4.09,-0.016875,0.0271875
4.091,-0.01625,0.0271875
4.092,-0.01625,0.0271875
4.093,-0.0159375,0.0271875
4.094,-0.015625,0.0271875
4.095,-0.0153125,0.0271875
4.096,-0.015,0.0271875
4.097,-0.0146875,0.0275
4.098,-0.014375,0.0275
4.099,-0.014375,0.0275
4.1,-0.0140625,0.0275
4.101,-0.0134375,0.0275
4.102,-0.0134375,0.0278125
4.103,-0.0128125,0.0278125
4.104,-0.0125,0.0278125
4.105,-0.0125,0.0278125
4.106,-0.0121875,0.0278125
4.107,-0.011875,0.028125
4.108,-0.011875,0.028125
4.109,-0.0115625,0.028125
4.11,-0.01125,0.028125
4.111,-0.0109375,0.028125
4.112,-0.0109375,0.028125
4.113,-0.010625,0.0278125
4.114,-0.010625,0.0278125
4.115,-0.0103125,0.0278125
4.116,-0.0103125,0.0278125
4.117,-0.0103125,0.0278125
4.118,-0.01,0.0278125
4.119,-0.01,0.028125
4.12,-0.01,0.028125
4.121,-0.01,0.028125
4.122,-0.01,0.028125
4.123,-0.01,0.0278125
4.124,-0.01,0.0278125
4.125,-0.01,0.0278125
4.126,-0.01,0.0278125
4.127,-0.01,0.0278125
4.128,-0.01,0.0278125
4.129,-0.01,0.0278125
4.13,-0.0103125,0.0278125
4.131,-0.0103125,0.0278125
4.132,-0.0103125,0.028125
4.133,-0.0103125,0.028125
4.134,-0.0103125,0.028125
4.135,-0.010625,0.028125
4.136,-0.010625,0.028125
4.137,-0.010625,0.028125
4.138,-0.0109375,0.028125
4.139,-0.0109375,0.0284375
4.14,-0.0109375,0.0284375
4.141,-0.01125,0.0284375
4.142,-0.01125,0.02875
4.143,-0.01125,0.02875
4.144,-0.0115625,0.0290625
4.145,-0.0115625,0.0290625
4.146,-0.0115625,0.029375
4.147,-0.0115625,0.029375
4.148,-0.0115625,0.0296875
4.149,-0.011875,0.0296875
4.15,-0.011875,0.0296875
4.151,-0.011875,0.03
4.152,-0.011875,0.03
4.153,-0.011875,0.0303125
4.154,-0.0121875,0.0303125
4.155,-0.0121875,0.0303125
4.156,-0.0121875,0.030625
4.157,-0.0121875,0.030625
4.158,-0.0121875,0.0309375
4.159,-0.011875,0.0309375
4.16,-0.011875,0.0309375
4.161,-0.011875,0.03125
4.162,-0.011875,0.03125
4.163,-0.011875,0.0315625
4.164,-0.011875,0.0315625
4.165,-0.011875,0.0315625
4.166,-0.011875,0.0315625
4.167,-0.011875,0.0315625
4.168,-0.011875,0.0315625
4.169,-0.011875,0.0315625
4.17,-0.011875,0.0315625
4.171,-0.011875,0.03125
4.172,-0.011875,0.03125
4.173,-0.011875,0.03125
4.174,-0.0115625,0.0309375
4.175,-0.0115625,0.030625
4.176,-0.0115625,0.0303125
4.177,-0.0115625,0.0303125
4.178,-0.0115625,0.03
4.179,-0.01125,0.0296875
4.18,-0.01125,0.029375
4.181,-0.01125,0.0290625
4.182,-0.01125,0.0284375
4.183,-0.0109375,0.028125
4.184,-0.0109375,0.0278125
4.185,-0.0109375,0.0275
4.186,-0.0109375,0.026875
4.187,-0.010625,0.0265625
4.188,-0.010625,0.0259375
4.189,-0.010625,0.025625
4.19,-0.010625,0.0253125
4.191,-0.010625,0.0246875
4.192,-0.010625,0.0240625
4.193,-0.010625,0.0234375
4.194,-0.0103125,0.023125
4.195,-0.0103125,0.0228125
4.196,-0.0103125,0.0221875
4.197,-0.0103125,0.0215625
4.198,-0.0103125,0.02125
4.199,-0.0103125,0.020625
4.2,-0.0103125,0.0203125
4.201,-0.0103125,0.02
4.202,-0.010625,0.0196875
4.203,-0.010625,0.019375
4.204,-0.010625,0.01875
4.205,-0.010625,0.01875
4.206,-0.010625,0.0184375
4.207,-0.010625,0.0184375
4.208,-0.010625,0.018125
4.209,-0.010625,0.0178125
4.21,-0.010625,0.0178125
4.211,-0.010625,0.0178125
4.212,-0.010625,0.0175
4.213,-0.010625,0.0175
4.214,-0.0109375,0.0178125
4.215,-0.0109375,0.0178125
4.216,-0.0109375,0.0178125
4.217,-0.0109375,0.018125
4.218,-0.0109375,0.018125
4.219,-0.01125,0.018125
4.22,-0.01125,0.01875
4.221,-0.01125,0.0190625
4.222,-0.0115625,0.0190625
4.223,-0.0115625,0.0196875
4.224,-0.0115625,0.0196875
4.225,-0.0115625,0.0203125
4.226,-0.0115625,0.020625
4.227,-0.011875,0.0209375
4.228,-0.011875,0.02125
4.229,-0.011875,0.021875
4.23,-0.0121875,0.0221875
4.231,-0.0121875,0.0225
4.232,-0.0121875,0.023125
4.233,-0.0121875,0.0234375
4.234,-0.0125,0.02375
4.235,-0.0125,0.024375
4.236,-0.0125,0.0246875
4.237,-0.0125,0.025
4.238,-0.0125,0.025625
4.239,-0.0128125,0.0259375
4.24,-0.0128125,0.02625
4.241,-0.0128125,0.026875
4.242,-0.0128125,0.0271875
4.243,-0.0128125,0.0275
4.244,-0.013125,0.028125
4.245,-0.013125,0.028125
4.246,-0.013125,0.02875
4.247,-0.013125,0.0290625
4.248,-0.013125,0.0290625
4.249,-0.013125,0.0296875
4.25,-0.0128125,0.03
4.251,-0.0128125,0.03
4.252,-0.0128125,0.0303125
4.253,-0.0128125,0.0303125
4.254,-0.0128125,0.030625
4.255,-0.0128125,0.0309375
4.256,-0.0128125,0.03125
4.257,-0.0125,0.03125
4.258,-0.0125,0.03125
4.259,-0.0125,0.0315625
4.26,-0.0125,0.031875
4.261,-0.0125,0.031875
4.262,-0.0125,0.0321875
4.263,-0.0121875,0.0325
4.264,-0.0121875,0.0325
4.265,-0.0121875,0.0325
4.266,-0.011875,0.0328125
4.267,-0.011875,0.033125
4.268,-0.011875,0.033125
4.269,-0.011875,0.0334375
4.27,-0.011875,0.03375
4.271,-0.011875,0.0340625
4.272,-0.0115625,0.034375
4.273,-0.0115625,0.034375
4.274,-0.0115625,0.035
4.275,-0.0115625,0.0353125
4.276,-0.0115625,0.0353125
4.277,-0.01125,0.0359375
4.278,-0.01125,0.03625
4.279,-0.01125,0.0365625
4.28,-0.01125,0.0371875
4.281,-0.01125,0.0375
4.282,-0.0109375,0.0378125
4.283,-0.0109375,0.0384375
4.284,-0.0109375,0.03875
4.285,-0.010625,0.039375
4.286,-0.010625,0.0396875
4.287,-0.010625,0.04
4.288,-0.0103125,0.040625
4.289,-0.0103125,0.0409375
4.29,-0.0103125,0.04125
4.291,-0.01,0.0415625
4.292,-0.01,0.0421875
4.293,-0.01,0.0425
4.294,-0.0096875,0.0428125
4.295,-0.0096875,0.043125
4.296,-0.0096875,0.0434375
4.297,-0.009375,0.04375
4.298,-0.009375,0.0440625
4.299,-0.009375,0.044375
4.3,-0.0090625,0.044375
4.301,-0.0090625,0.0446875
4.302,-0.0090625,0.045
4.303,-0.0090625,0.045
4.304,-0.0090625,0.0453125
4.305,-0.00875,0.045625
4.306,-0.00875,0.045625
4.307,-0.00875,0.045625
4.308,-0.0090625,0.0459375
4.309,-0.0090625,0.0459375
4.31,-0.0090625,0.0459375
4.311,-0.0090625,0.0459375
4.312,-0.0090625,0.0459375
4.313,-0.0090625,0.04625
4.314,-0.0090625,0.04625
4.315,-0.009375,0.04625
4.316,-0.009375,0.04625
4.317,-0.009375,0.04625
4.318,-0.009375,0.04625
4.319,-0.0096875,0.04625
4.32,-0.0096875,0.04625
4.321,-0.0096875,0.0459375
4.322,-0.0096875,0.0459375
4.323,-0.0096875,0.0459375
4.324,-0.01,0.0459375
4.325,-0.01,0.0459375
4.326,-0.01,0.0459375
4.327,-0.01,0.0459375
4.328,-0.01,0.0459375
4.329,-0.01,0.0459375
4.33,-0.01,0.045625
4.331,-0.0096875,0.045625
4.332,-0.0096875,0.045625
4.333,-0.0096875,0.0453125
4.334,-0.0096875,0.0453125
4.335,-0.0096875,0.045
4.336,-0.0096875,0.045
4.337,-0.0096875,0.045
4.338,-0.009375,0.0446875
4.339,-0.009375,0.0446875
4.34,-0.0090625,0.044375
4.341,-0.0090625,0.044375
4.342,-0.0090625,0.044375
4.343,-0.00875,0.0440625
4.344,-0.00875,0.0440625
4.345,-0.0084375,0.04375
4.346,-0.0084375,0.04375
4.347,-0.008125,0.04375
4.348,-0.008125,0.0434375
4.349,-0.008125,0.0434375
4.35,-0.0078125,0.043125
4.351,-0.0078125,0.043125
4.352,-0.0075,0.043125
4.353,-0.0075,0.0428125
4.354,-0.0075,0.0428125
4.355,-0.0075,0.0425
4.356,-0.0071875,0.0425
4.357,-0.0071875,0.0425
4.358,-0.0071875,0.0421875
4.359,-0.0071875,0.0421875
4.36,-0.0071875,0.0421875
4.361,-0.0071875,0.0421875
4.362,-0.0071875,0.0421875
4.363,-0.0071875,0.0421875
4.364,-0.0075,0.0421875
4.365,-0.0075,0.0421875
4.366,-0.0075,0.0421875
4.367,-0.0075,0.0421875
4.368,-0.0075,0.0421875
4.369,-0.0078125,0.0421875
4.37,-0.0078125,0.0421875
4.371,-0.0078125,0.0421875
4.372,-0.008125,0.0421875
4.373,-0.008125,0.0421875
4.374,-0.0084375,0.0421875
4.375,-0.0084375,0.0421875
4.376,-0.00875,0.0425
4.377,-0.0090625,0.0425
4.378,-0.009375,0.0425
4.379,-0.009375,0.0425
4.38,-0.0096875,0.0425
4.381,-0.01,0.0425
4.382,-0.01,0.0425
4.383,-0.0103125,0.0425
4.384,-0.010625,0.0425
4.385,-0.010625,0.0425
4.386,-0.0109375,0.0428125
4.387,-0.01125,0.0428125
4.388,-0.01125,0.0428125
4.389,-0.011875,0.0428125
4.39,-0.011875,0.0428125
4.391,-0.0121875,0.043125
4.392,-0.0121875,0.043125
4.393,-0.0125,0.043125
4.394,-0.0128125,0.043125
4.395,-0.0128125,0.043125
4.396,-0.013125,0.0434375
4.397,-0.013125,0.0434375
4.398,-0.013125,0.0434375
4.399,-0.0134375,0.0434375
4.4,-0.0134375,0.0434375
4.401,-0.0134375,0.0434375
4.402,-0.0134375,0.0434375
4.403,-0.01375,0.043125
4.404,-0.01375,0.043125
4.405,-0.0134375,0.043125
4.406,-0.0134375,0.043125
4.407,-0.0134375,0.043125
4.408,-0.0134375,0.043125
4.409,-0.0134375,0.043125
4.41,-0.0134375,0.0428125
4.411,-0.0134375,0.0428125
4.412,-0.013125,0.0428125
4.413,-0.013125,0.0425
4.414,-0.013125,0.0425
4.415,-0.0128125,0.0425
4.416,-0.0128125,0.0421875
4.417,-0.0125,0.0421875
4.418,-0.0125,0.0421875
4.419,-0.0125,0.041875
4.42,-0.0121875,0.041875
4.421,-0.0121875,0.0415625
4.422,-0.011875,0.0415625
4.423,-0.011875,0.04125
4.424,-0.011875,0.04125
4.425,-0.0115625,0.04125
4.426,-0.0115625,0.0409375
4.427,-0.01125,0.0409375
4.428,-0.0109375,0.040625
4.429,-0.0109375,0.040625
4.43,-0.0109375,0.040625
4.431,-0.010625,0.0403125
4.432,-0.010625,0.0403125
4.433,-0.0103125,0.0403125
4.434,-0.0103125,0.04
4.435,-0.0103125,0.04
4.436,-0.01,0.04
4.437,-0.01,0.04
4.438,-0.01,0.04
4.439,-0.01,0.04
4.44,-0.01,0.0403125
4.441,-0.0096875,0.0403125
4.442,-0.0096875,0.0403125
4.443,-0.0096875,0.0403125
4.444,-0.0096875,0.0403125
4.445,-0.01,0.0403125
4.446,-0.01,0.040625
4.447,-0.01,0.040625
4.448,-0.01,0.040625
4.449,-0.01,0.0409375
4.45,-0.01,0.0409375
4.451,-0.01,0.04125
4.452,-0.0103125,0.04125
4.453,-0.0103125,0.0415625
4.454,-0.0103125,0.041875
4.455,-0.010625,0.041875
4.456,-0.010625,0.041875
4.457,-0.010625,0.0425
4.458,-0.0109375,0.0425
4.459,-0.0109375,0.0428125
4.46,-0.0109375,0.043125
4.461,-0.01125,0.043125
4.462,-0.01125,0.0434375
4.463,-0.0115625,0.04375
4.464,-0.0115625,0.04375
4.465,-0.0115625,0.0440625
4.466,-0.011875,0.0440625
4.467,-0.011875,0.044375
4.468,-0.011875,0.0446875
4.469,-0.0121875,0.0446875
4.47,-0.0121875,0.045
4.471,-0.0121875,0.045
4.472,-0.0121875,0.0453125
4.473,-0.0121875,0.0453125
4.474,-0.0121875,0.0453125
4.475,-0.0125,0.045625
4.476,-0.0125,0.045625
4.477,-0.0125,0.045625
4.478,-0.0125,0.0459375
4.479,-0.0125,0.0459375
4.48,-0.0125,0.0459375
4.481,-0.0121875,0.0459375
4.482,-0.0121875,0.0459375
4.483,-0.0121875,0.0459375
4.484,-0.0121875,0.0459375
4.485,-0.0121875,0.045625
4.486,-0.0121875,0.045625
4.487,-0.0121875,0.045625
4.488,-0.011875,0.045625
4.489,-0.011875,0.0453125
4.49,-0.011875,0.0453125
4.491,-0.011875,0.0453125
4.492,-0.011875,0.045
4.493,-0.011875,0.045
4.494,-0.011875,0.045
4.495,-0.0115625,0.0446875
4.496,-0.0115625,0.0446875
4.497,-0.0115625,0.0446875
4.498,-0.0115625,0.044375
4.499,-0.011875,0.044375
4.5,-0.011875,0.044375
4.501,-0.011875,0.044375
4.502,-0.011875,0.0440625
4.503,-0.011875,0.0440625
4.504,-0.011875,0.0440625
4.505,-0.011875,0.04375
4.506,-0.011875,0.04375
4.507,-0.011875,0.04375
4.508,-0.011875,0.0434375
4.509,-0.011875,0.0434375
4.51,-0.011875,0.043125
4.511,-0.011875,0.043125
4.512,-0.011875,0.0428125
4.513,-0.011875,0.0428125
4.514,-0.011875,0.0425
4.515,-0.011875,0.0425
4.516,-0.011875,0.0425
4.517,-0.011875,0.0421875
4.518,-0.011875,0.0421875
4.519,-0.011875,0.041875
4.52,-0.011875,0.041875
4.521,-0.011875,0.041875
4.522,-0.011875,0.0415625
4.523,-0.011875,0.0415625
4.524,-0.011875,0.04125
4.525,-0.011875,0.04125
4.526,-0.011875,0.0409375
4.527,-0.011875,0.0409375
4.528,-0.011875,0.0409375
4.529,-0.011875,0.040625
4.53,-0.011875,0.040625
4.531,-0.011875,0.0403125
4.532,-0.011875,0.0403125
4.533,-0.011875,0.04
4.534,-0.011875,0.04
4.535,-0.011875,0.04
4.536,-0.0121875,0.0396875
4.537,-0.0121875,0.0396875
4.538,-0.0121875,0.0396875
4.539,-0.0121875,0.039375
4.54,-0.0121875,0.039375
4.541,-0.0125,0.0390625
4.542,-0.0125,0.0390625
4.543,-0.0125,0.0390625
4.544,-0.0128125,0.03875
4.545,-0.0128125,0.03875
4.546,-0.0128125,0.03875
4.547,-0.0128125,0.03875
4.548,-0.013125,0.0384375
4.549,-0.013125,0.0384375
4.55,-0.013125,0.038125
4.551,-0.0134375,0.038125
4.552,-0.0134375,0.038125
4.553,-0.0134375,0.0378125
4.554,-0.0134375,0.0378125
4.555,-0.01375,0.0375
4.556,-0.01375,0.0375
4.557,-0.01375,0.0375
4.558,-0.0140625,0.0371875
4.559,-0.0140625,0.0371875
4.56,-0.0140625,0.0371875
4.561,-0.0140625,0.036875
4.562,-0.014375,0.036875
4.563,-0.014375,0.0365625
4.564,-0.014375,0.0365625
4.565,-0.014375,0.03625
4.566,-0.014375,0.03625
4.567,-0.0146875,0.03625
4.568,-0.0146875,0.0359375
4.569,-0.0146875,0.0359375
4.57,-0.015,0.035625
4.571,-0.015,0.035625
4.572,-0.015,0.0353125
4.573,-0.0153125,0.035
4.574,-0.0153125,0.035
4.575,-0.0153125,0.035
4.576,-0.015625,0.0346875
4.577,-0.015625,0.034375
4.578,-0.015625,0.0340625
4.579,-0.0159375,0.0340625
4.58,-0.0159375,0.0340625
4.581,-0.0159375,0.03375
4.582,-0.01625,0.0334375
4.583,-0.01625,0.033125
4.584,-0.01625,0.033125
4.585,-0.01625,0.033125
4.586,-0.01625,0.0328125
4.587,-0.0165625,0.0325
4.588,-0.0165625,0.0321875
4.589,-0.0165625,0.0321875
4.59,-0.0165625,0.031875
4.591,-0.0165625,0.0315625
4.592,-0.0165625,0.0315625
4.593,-0.01625,0.03125
4.594,-0.01625,0.0309375
4.595,-0.01625,0.0309375
4.596,-0.01625,0.030625
4.597,-0.01625,0.030625
4.598,-0.0159375,0.0303125
4.599,-0.0159375,0.0303125
4.6,-0.0159375,0.0303125
4.601,-0.015625,0.03
4.602,-0.015625,0.03
4.603,-0.0153125,0.03
4.604,-0.0153125,0.03
4.605,-0.0153125,0.03
4.606,-0.015,0.0296875
4.607,-0.015,0.0296875
4.608,-0.015,0.0296875
4.609,-0.0146875,0.0296875
